,date,code,close,TR,ATR,MAHR_100_HIGH,MAHR_20,MAHR_30
183,2019-10-08,510300,3.894,0.04699999999999971,,,,
184,2019-10-09,510300,3.905,0.04400000000000004,,,,
185,2019-10-10,510300,3.933,0.051000000000000156,,,,
186,2019-10-11,510300,3.981,0.06599999999999984,,,,
187,2019-10-14,510300,4.01,0.06899999999999995,,,3.9446,
188,2019-10-15,510300,3.997,0.019000000000000128,,,3.9652000000000003,
189,2019-10-16,510300,3.983,0.05099999999999971,,,3.9808,
190,2019-10-17,510300,3.989,0.02499999999999991,,,3.992,3.9615
191,2019-10-18,510300,3.931,0.08500000000000041,,,3.9820000000000007,3.966125
192,2019-10-21,510300,3.94,0.026000000000000245,,,3.968000000000001,3.9704999999999995
193,2019-10-22,510300,3.955,0.03399999999999981,,,3.9596000000000005,3.9732499999999993
194,2019-10-23,510300,3.934,0.0389999999999997,,,3.9498000000000006,3.9673749999999988
195,2019-10-24,510300,3.939,0.04100000000000037,,,3.9398000000000004,3.958499999999999
196,2019-10-25,510300,3.963,0.05900000000000016,,,3.9462,3.954249999999999
197,2019-10-28,510300,3.986,0.029999999999999805,,,3.9554,3.9546249999999987
198,2019-10-29,510300,3.973,0.020000000000000018,,,3.9590000000000005,3.952624999999999
199,2019-10-30,510300,3.947,0.03399999999999981,,,3.9616,3.9546249999999987
200,2019-10-31,510300,3.945,0.028999999999999915,,,3.9628,3.955249999999998
201,2019-11-01,510300,4.026,0.09299999999999997,,,3.9753999999999996,3.9641249999999983
202,2019-11-04,510300,4.039,0.02400000000000002,0.044299999999999985,,3.9859999999999993,3.9772499999999984
203,2019-11-05,510300,4.062,0.06899999999999995,0.045399999999999996,,4.0038,3.9926249999999985
204,2019-11-06,510300,4.045,0.032999999999999474,0.044849999999999966,,4.0234000000000005,4.002874999999999
205,2019-11-07,510300,4.05,0.04099999999999948,0.04434999999999993,,4.0444,4.010874999999999
206,2019-11-08,510300,4.034,0.05399999999999938,0.043749999999999914,,4.046,4.018499999999999
207,2019-11-11,510300,3.967,0.07399999999999984,0.04399999999999991,4.101,4.0316,4.020999999999998
208,2019-11-12,510300,3.962,0.040999999999999925,0.0450999999999999,4.101,4.0116,4.0231249999999985
209,2019-11-13,510300,3.959,0.022999999999999687,0.04369999999999989,4.101,3.9944,4.014749999999999
210,2019-11-14,510300,3.962,0.02400000000000002,0.0436499999999999,4.101,3.9768,4.005125
211,2019-11-15,510300,3.943,0.039000000000000146,0.04134999999999989,4.101,3.9586000000000006,3.990249999999999
212,2019-11-18,510300,3.971,0.04600000000000026,0.04234999999999989,4.101,3.959400000000001,3.980999999999999
213,2019-11-19,510300,4.011,0.04999999999999982,0.04314999999999989,4.101,3.9692000000000007,3.9761249999999992
214,2019-11-20,510300,3.97,0.052000000000000046,0.04379999999999991,4.101,3.9714000000000005,3.9681249999999997
215,2019-11-21,510300,3.95,0.03300000000000036,0.043399999999999904,4.101,3.9690000000000003,3.966
216,2019-11-22,510300,3.908,0.09200000000000008,0.0450499999999999,4.101,3.9620000000000006,3.9592500000000004
217,2019-11-25,510300,3.936,0.03399999999999981,0.0452499999999999,4.101,3.9550000000000005,3.956375
218,2019-11-26,510300,3.942,0.03200000000000003,0.045849999999999905,4.101,3.9412000000000007,3.9538750000000005
219,2019-11-27,510300,3.936,0.03300000000000036,0.04579999999999993,4.101,3.934400000000001,3.9530000000000007
220,2019-11-28,510300,3.93,0.03500000000000014,0.04609999999999994,4.101,3.930400000000001,3.947875000000001
221,2019-11-29,510300,3.887,0.06200000000000028,0.04454999999999996,4.101,3.9262000000000006,3.932375000000001
222,2019-12-02,510300,3.895,0.02400000000000002,0.04454999999999996,4.101,3.9180000000000006,3.923000000000001
223,2019-12-03,510300,3.911,0.042999999999999705,0.04324999999999994,4.101,3.911800000000001,3.918125000000001
224,2019-12-04,510300,3.913,0.026000000000000245,0.04289999999999998,4.101,3.907200000000001,3.918750000000001
225,2019-12-05,510300,3.942,0.03600000000000003,0.04265000000000001,4.101,3.909600000000001,3.919500000000001
226,2019-12-06,510300,3.966,0.028000000000000025,0.04135000000000004,4.101,3.925400000000001,3.922500000000001
227,2019-12-09,510300,3.953,0.03299999999999992,0.03930000000000004,4.101,3.937000000000001,3.9246250000000016
228,2019-12-10,510300,3.956,0.020000000000000018,0.03825000000000005,4.084,3.9460000000000006,3.927875000000002
229,2019-12-11,510300,3.9,0.07299999999999995,0.040750000000000064,4.084,3.9434000000000005,3.9295000000000018
230,2019-12-12,510300,3.889,0.019000000000000128,0.04050000000000007,4.084,3.9328000000000003,3.928750000000002
231,2019-12-13,510300,3.968,0.0860000000000003,0.042850000000000076,4.013,3.9332000000000003,3.935875000000002
232,2019-12-16,510300,3.98,0.03699999999999992,0.04240000000000006,4.013,3.9386,3.9442500000000016
233,2019-12-17,510300,4.042,0.09399999999999942,0.04460000000000004,4.068,3.9558,3.9567500000000013
234,2019-12-18,510300,4.027,0.03500000000000014,0.043750000000000046,4.068,3.9812000000000003,3.9643750000000013
235,2019-12-19,510300,4.02,0.021000000000000796,0.04315000000000006,4.068,4.0074000000000005,3.972750000000002
236,2019-12-20,510300,4.016,0.03200000000000003,0.04015000000000006,4.068,4.017000000000001,3.980250000000002
237,2019-12-23,510300,3.964,0.06999999999999984,0.041950000000000064,4.068,4.013800000000001,3.9882500000000025
238,2019-12-24,510300,3.985,0.028999999999999915,0.04180000000000006,4.068,4.0024,4.000250000000002
239,2019-12-25,510300,3.992,0.02400000000000002,0.04135000000000004,4.068,3.9954,4.003250000000001
240,2019-12-26,510300,4.021,0.0389999999999997,0.04155000000000002,4.068,3.9956000000000005,4.008375000000002
241,2019-12-27,510300,4.017,0.0519999999999996,0.04104999999999999,4.068,3.9958,4.005250000000002
242,2019-12-30,510300,4.075,0.08800000000000008,0.04424999999999999,4.088,4.018,4.011250000000002
243,2019-12-31,510300,4.096,0.03699999999999992,0.04395,4.099,4.0402000000000005,4.020750000000003
244,2020-01-02,510300,4.149,0.07800000000000029,0.04655,4.174,4.0716,4.0373750000000035
245,2020-01-03,510300,4.139,0.028999999999999915,0.0462,4.174,4.0952,4.059250000000004
246,2020-01-06,510300,4.123,0.07699999999999996,0.04864999999999999,4.174,4.1164000000000005,4.076500000000004
247,2020-01-07,510300,4.155,0.03699999999999992,0.04884999999999999,4.174,4.1324000000000005,4.096875000000004
248,2020-01-08,510300,4.114,0.05799999999999983,0.05074999999999998,4.174,4.136000000000001,4.108500000000004
249,2020-01-09,510300,4.158,0.051000000000000156,0.04964999999999999,4.174,4.1378,4.126125000000004
250,2020-01-10,510300,4.157,0.03200000000000003,0.05029999999999999,4.176,4.141400000000001,4.136375000000003
251,2020-01-13,510300,4.202,0.06400000000000006,0.04919999999999998,4.205,4.157200000000001,4.149625000000002
252,2020-01-14,510300,4.184,0.0420000000000007,0.049450000000000015,4.222,4.163000000000001,4.154000000000002
253,2020-01-15,510300,4.152,0.04500000000000082,0.04700000000000008,4.222,4.170600000000001,4.1556250000000015
254,2020-01-16,510300,4.146,0.02800000000000047,0.0466500000000001,4.222,4.168200000000001,4.158500000000002
255,2020-01-17,510300,4.151,0.038000000000000256,0.04750000000000008,4.222,4.167000000000001,4.158000000000001
256,2020-01-20,510300,4.181,0.04099999999999948,0.04795000000000005,4.222,4.162800000000002,4.166375000000001
257,2020-01-21,510300,4.105,0.0810000000000004,0.04850000000000008,4.222,4.147000000000001,4.159750000000001
258,2020-01-22,510300,4.119,0.0990000000000002,0.05200000000000009,4.222,4.140400000000001,4.155000000000001
259,2020-01-23,510300,3.996,0.1629999999999998,0.05895000000000008,4.222,4.1104,4.129250000000002
260,2020-02-03,510300,3.659,0.3599999999999999,0.0750000000000001,4.222,4.0120000000000005,4.063625000000002
261,2020-02-04,510300,3.77,0.12699999999999978,0.0787500000000001,4.222,3.9298,4.015875000000002
262,2020-02-05,510300,3.807,0.08700000000000019,0.0787000000000001,4.222,3.8701999999999996,3.9735000000000023
263,2020-02-06,510300,3.897,0.11599999999999966,0.08265000000000008,4.222,3.8257999999999996,3.941750000000002
183,2019-10-08,510500,5.337,0.06400000000000006,,,,
184,2019-10-09,510500,5.384,0.09100000000000019,,,,
185,2019-10-10,510500,5.443,0.08499999999999996,,,,
186,2019-10-11,510500,5.471,0.07899999999999974,,,,
187,2019-10-14,510500,5.533,0.09799999999999986,,,5.4336,
188,2019-10-15,510500,5.466,0.07500000000000018,,,5.4594000000000005,
189,2019-10-16,510500,5.434,0.06799999999999962,,,5.4694,
190,2019-10-17,510500,5.435,0.036000000000000476,,,5.467800000000001,5.437875
191,2019-10-18,510500,5.36,0.11799999999999944,,,5.445600000000001,5.4407499999999995
192,2019-10-21,510500,5.35,0.0600000000000005,,,5.409000000000001,5.4365
193,2019-10-22,510500,5.4,0.06899999999999995,,,5.3957999999999995,5.431125
194,2019-10-23,510500,5.368,0.06399999999999917,,,5.3826,5.4182500000000005
195,2019-10-24,510500,5.358,0.051000000000000156,,,5.3672,5.396375
196,2019-10-25,510500,5.403,0.09999999999999964,,,5.375800000000001,5.3885
197,2019-10-28,510500,5.477,0.07600000000000051,,,5.401200000000001,5.3938749999999995
198,2019-10-29,510500,5.41,0.07200000000000006,,,5.403200000000003,5.390749999999999
199,2019-10-30,510500,5.343,0.0730000000000004,,,5.398200000000001,5.388624999999999
200,2019-10-31,510500,5.315,0.056999999999999496,,,5.389600000000001,5.384249999999999
201,2019-11-01,510500,5.366,0.08199999999999985,,,5.382200000000002,5.379999999999999
202,2019-11-04,510500,5.381,0.0519999999999996,0.07349999999999994,,5.363000000000001,5.381624999999999
203,2019-11-05,510500,5.421,0.08800000000000008,0.07469999999999995,,5.365200000000002,5.389499999999999
204,2019-11-06,510500,5.374,0.08300000000000018,0.07429999999999995,,5.371400000000002,5.3858749999999995
205,2019-11-07,510500,5.409,0.0699999999999994,0.07354999999999992,,5.390200000000002,5.377374999999999
206,2019-11-08,510500,5.389,0.07900000000000063,0.07354999999999996,,5.394800000000002,5.374749999999999
207,2019-11-11,510500,5.265,0.12900000000000045,0.07509999999999999,5.569,5.371600000000003,5.364999999999998
208,2019-11-12,510500,5.268,0.0730000000000004,0.075,5.569,5.341000000000003,5.359124999999999
209,2019-11-13,510500,5.268,0.03699999999999992,0.07345000000000002,5.569,5.3198000000000025,5.346874999999999
210,2019-11-14,510500,5.299,0.054999999999999716,0.07439999999999998,5.569,5.297800000000003,5.336624999999999
211,2019-11-15,510500,5.267,0.0730000000000004,0.07215000000000002,5.569,5.273400000000003,5.317374999999999
212,2019-11-18,510500,5.286,0.054999999999999716,0.07189999999999999,5.517,5.277600000000002,5.306374999999999
213,2019-11-19,510500,5.371,0.09600000000000009,0.07325,5.5,5.298200000000003,5.301625
214,2019-11-20,510500,5.337,0.05400000000000027,0.07275000000000005,5.479,5.312000000000003,5.295125
215,2019-11-21,510500,5.345,0.05800000000000072,0.07310000000000008,5.479,5.321200000000003,5.305124999999999
216,2019-11-22,510500,5.29,0.15999999999999925,0.07610000000000006,5.479,5.325800000000003,5.307874999999999
217,2019-11-25,510500,5.294,0.0649999999999995,0.07555,5.479,5.327400000000003,5.311124999999999
218,2019-11-26,510500,5.276,0.052999999999999936,0.0746,5.479,5.308400000000003,5.308249999999998
219,2019-11-27,510500,5.3,0.07800000000000029,0.07485,5.479,5.301000000000004,5.312374999999998
220,2019-11-28,510500,5.29,0.04400000000000048,0.07420000000000004,5.479,5.290000000000004,5.312874999999997
221,2019-11-29,510500,5.29,0.07299999999999951,0.07375000000000002,5.479,5.290000000000004,5.302749999999997
222,2019-12-02,510500,5.307,0.05399999999999938,0.07385000000000001,5.478,5.292600000000004,5.298999999999998
223,2019-12-03,510500,5.33,0.06900000000000084,0.07290000000000005,5.464,5.303400000000004,5.297124999999998
224,2019-12-04,510500,5.319,0.038000000000000256,0.07065000000000006,5.464,5.3072000000000035,5.300749999999998
225,2019-12-05,510500,5.369,0.06700000000000017,0.07050000000000009,5.464,5.323000000000004,5.310124999999998
226,2019-12-06,510500,5.421,0.06799999999999962,0.06995000000000004,5.464,5.349200000000005,5.328249999999999
227,2019-12-09,510500,5.433,0.040000000000000036,0.06550000000000003,5.464,5.374400000000004,5.344874999999999
228,2019-12-10,510500,5.458,0.06400000000000006,0.06505000000000001,5.469,5.400000000000004,5.365874999999999
229,2019-12-11,510500,5.437,0.04699999999999971,0.06555,5.469,5.423600000000004,5.384249999999999
230,2019-12-12,510500,5.426,0.0420000000000007,0.06490000000000004,5.469,5.435000000000004,5.399124999999999
231,2019-12-13,510500,5.5,0.08800000000000008,0.06565000000000003,5.514,5.450800000000004,5.420374999999999
232,2019-12-16,510500,5.587,0.10000000000000053,0.06790000000000007,5.597,5.481600000000005,5.453874999999998
233,2019-12-17,510500,5.675,0.12099999999999955,0.06915000000000004,5.701,5.525000000000004,5.492124999999998
234,2019-12-18,510500,5.67,0.054999999999999716,0.06920000000000001,5.71,5.5716000000000045,5.523249999999998
235,2019-12-19,510500,5.684,0.04600000000000026,0.0686,5.71,5.623200000000004,5.554624999999998
236,2019-12-20,510500,5.628,0.0829999999999993,0.06475,5.71,5.648800000000004,5.575874999999998
237,2019-12-23,510500,5.499,0.13400000000000034,0.06820000000000004,5.71,5.631200000000005,5.583624999999999
238,2019-12-24,510500,5.582,0.09000000000000075,0.07005000000000008,5.71,5.612600000000004,5.603124999999999
239,2019-12-25,510500,5.607,0.04699999999999971,0.06850000000000005,5.71,5.600000000000004,5.6164999999999985
240,2019-12-26,510500,5.649,0.06400000000000006,0.06950000000000003,5.71,5.593000000000004,5.624249999999998
241,2019-12-27,510500,5.604,0.08699999999999974,0.07020000000000004,5.71,5.588200000000005,5.6153749999999985
242,2019-12-30,510500,5.682,0.13600000000000012,0.07430000000000007,5.71,5.624800000000006,5.6168749999999985
243,2019-12-31,510500,5.705,0.05600000000000005,0.07365000000000003,5.712,5.649400000000005,5.619499999999999
244,2020-01-02,510500,5.813,0.12399999999999967,0.07795,5.829,5.690600000000006,5.642624999999999
245,2020-01-03,510500,5.824,0.04600000000000026,0.07690000000000001,5.846,5.725600000000005,5.683249999999998
246,2020-01-06,510500,5.89,0.15300000000000047,0.08115000000000006,5.948,5.782800000000006,5.721749999999998
247,2020-01-07,510500,5.966,0.08000000000000007,0.08315000000000006,5.968,5.839600000000006,5.766624999999999
248,2020-01-08,510500,5.883,0.10099999999999998,0.08500000000000005,5.968,5.875200000000007,5.795874999999999
249,2020-01-09,510500,5.957,0.07500000000000018,0.08640000000000007,5.968,5.904000000000007,5.839999999999999
250,2020-01-10,510500,5.932,0.07900000000000063,0.08825000000000008,5.98,5.925600000000007,5.871249999999999
251,2020-01-13,510500,6.031,0.1429999999999998,0.09100000000000005,6.035,5.953800000000006,5.911999999999999
252,2020-01-14,510500,6.005,0.05600000000000005,0.08880000000000003,6.055,5.961600000000007,5.935999999999999
253,2020-01-15,510500,5.987,0.06200000000000028,0.08585000000000007,6.055,5.982400000000007,5.9563749999999995
254,2020-01-16,510500,5.995,0.043999999999999595,0.08530000000000007,6.055,5.990000000000007,5.969499999999999
255,2020-01-17,510500,5.961,0.07399999999999984,0.08670000000000004,6.055,5.995800000000007,5.968874999999999
256,2020-01-20,510500,6.061,0.1120000000000001,0.08815000000000009,6.063,6.001800000000007,5.9911249999999985
257,2020-01-21,510500,5.99,0.09699999999999953,0.08630000000000004,6.063,5.998800000000008,5.995249999999999
258,2020-01-22,510500,6.036,0.18900000000000006,0.09125000000000001,6.074,6.008600000000007,6.0082499999999985
259,2020-01-23,510500,5.811,0.27199999999999935,0.1025,6.074,5.971800000000007,5.980749999999999
260,2020-02-03,510500,5.339,0.5110000000000001,0.12484999999999999,6.074,5.8474000000000075,5.897499999999998
261,2020-02-04,510500,5.429,0.1640000000000006,0.12870000000000004,6.074,5.721000000000008,5.827749999999998
262,2020-02-05,510500,5.546,0.17999999999999972,0.13090000000000002,6.074,5.632200000000007,5.7716249999999985
263,2020-02-06,510500,5.711,0.23100000000000076,0.13965000000000005,6.074,5.567200000000007,5.7403749999999985
183,2019-10-08,159949,0.567,0.01100000000000001,,,,
184,2019-10-09,159949,0.57,0.008000000000000007,,,,
185,2019-10-10,159949,0.587,0.018000000000000016,,,,
186,2019-10-11,159949,0.589,0.010000000000000009,,,,
187,2019-10-14,159949,0.593,0.01100000000000001,,,0.5811999999999999,
188,2019-10-15,159949,0.586,0.010000000000000009,,,0.585,
189,2019-10-16,159949,0.584,0.008000000000000007,,,0.5878,
190,2019-10-17,159949,0.585,0.0050000000000000044,,,0.5874,0.582625
191,2019-10-18,159949,0.58,0.01200000000000001,,,0.5856000000000001,0.5842499999999999
192,2019-10-21,159949,0.577,0.010000000000000009,,,0.5824,0.5851249999999999
193,2019-10-22,159949,0.586,0.009000000000000008,,,0.5824,0.585
194,2019-10-23,159949,0.578,0.009000000000000008,,,0.5812,0.5836250000000001
195,2019-10-24,159949,0.579,0.007000000000000006,,,0.5800000000000001,0.581875
196,2019-10-25,159949,0.587,0.01200000000000001,,,0.5814,0.582
197,2019-10-28,159949,0.598,0.01200000000000001,,,0.5856,0.58375
198,2019-10-29,159949,0.59,0.009000000000000008,,,0.5864,0.584375
199,2019-10-30,159949,0.59,0.007000000000000006,,,0.5888,0.585625
200,2019-10-31,159949,0.587,0.008000000000000007,,,0.5904,0.5868749999999999
201,2019-11-01,159949,0.596,0.010000000000000009,,,0.5922000000000001,0.5881249999999999
202,2019-11-04,159949,0.599,0.007000000000000006,0.00965000000000001,,0.5924000000000001,0.5907499999999999
203,2019-11-05,159949,0.606,0.01100000000000001,0.00965000000000001,,0.5956000000000001,0.5941249999999999
204,2019-11-06,159949,0.603,0.01100000000000001,0.009800000000000008,,0.5982000000000001,0.5961249999999999
205,2019-11-07,159949,0.606,0.010000000000000009,0.009400000000000009,,0.6020000000000001,0.5971249999999999
206,2019-11-08,159949,0.608,0.009000000000000008,0.009350000000000008,,0.6044000000000002,0.5993749999999999
207,2019-11-11,159949,0.594,0.015000000000000013,0.009550000000000008,0.615,0.6034,0.5998749999999999
208,2019-11-12,159949,0.591,0.01100000000000001,0.009600000000000008,0.615,0.6004000000000002,0.600375
209,2019-11-13,159949,0.596,0.008000000000000007,0.009600000000000008,0.615,0.5990000000000002,0.600375
210,2019-11-14,159949,0.601,0.008000000000000007,0.009750000000000009,0.615,0.5980000000000002,0.600625
211,2019-11-15,159949,0.597,0.010000000000000009,0.00965000000000001,0.615,0.5958000000000002,0.5994999999999999
212,2019-11-18,159949,0.6,0.007000000000000006,0.009500000000000008,0.615,0.5970000000000002,0.5991249999999999
213,2019-11-19,159949,0.622,0.02200000000000002,0.01015000000000001,0.622,0.6032000000000002,0.6011249999999999
214,2019-11-20,159949,0.618,0.01200000000000001,0.010300000000000009,0.628,0.6076000000000001,0.602375
215,2019-11-21,159949,0.615,0.009000000000000008,0.01040000000000001,0.628,0.6104,0.605
216,2019-11-22,159949,0.603,0.025000000000000022,0.01105000000000001,0.628,0.6116,0.6064999999999999
217,2019-11-25,159949,0.599,0.01200000000000001,0.01105000000000001,0.628,0.6113999999999999,0.6068749999999999
218,2019-11-26,159949,0.602,0.009000000000000008,0.01105000000000001,0.628,0.6073999999999999,0.607
219,2019-11-27,159949,0.603,0.013000000000000012,0.01135000000000001,0.628,0.6043999999999999,0.60775
220,2019-11-28,159949,0.603,0.007000000000000006,0.01130000000000001,0.628,0.602,0.608125
221,2019-11-29,159949,0.597,0.01100000000000001,0.01135000000000001,0.628,0.6007999999999999,0.605
222,2019-12-02,159949,0.599,0.007000000000000006,0.01135000000000001,0.628,0.6007999999999999,0.602625
223,2019-12-03,159949,0.603,0.013000000000000012,0.01145000000000001,0.628,0.6009999999999999,0.6011249999999999
224,2019-12-04,159949,0.604,0.01100000000000001,0.01145000000000001,0.628,0.6011999999999998,0.60125
225,2019-12-05,159949,0.618,0.017000000000000015,0.01180000000000001,0.628,0.6041999999999998,0.603625
226,2019-12-06,159949,0.625,0.008000000000000007,0.01175000000000001,0.628,0.6097999999999998,0.6064999999999999
227,2019-12-09,159949,0.621,0.009000000000000008,0.01145000000000001,0.628,0.6141999999999997,0.6087499999999999
228,2019-12-10,159949,0.63,0.014000000000000012,0.01160000000000001,0.632,0.6195999999999998,0.6121249999999999
229,2019-12-11,159949,0.624,0.010000000000000009,0.01170000000000001,0.632,0.6235999999999998,0.6154999999999999
230,2019-12-12,159949,0.625,0.008000000000000007,0.01170000000000001,0.632,0.6249999999999998,0.6187499999999999
231,2019-12-13,159949,0.642,0.017000000000000015,0.01205000000000001,0.642,0.6283999999999998,0.623625
232,2019-12-16,159949,0.649,0.01200000000000001,0.01230000000000001,0.65,0.6339999999999998,0.62925
233,2019-12-17,159949,0.657,0.013000000000000012,0.01185000000000001,0.662,0.6393999999999999,0.6341249999999999
234,2019-12-18,159949,0.654,0.008000000000000007,0.011650000000000011,0.662,0.6453999999999998,0.6377499999999999
235,2019-12-19,159949,0.654,0.009000000000000008,0.011650000000000011,0.662,0.6511999999999998,0.641875
236,2019-12-20,159949,0.646,0.01100000000000001,0.01095000000000001,0.662,0.6519999999999998,0.643875
237,2019-12-23,159949,0.634,0.016000000000000014,0.01115000000000001,0.662,0.6489999999999998,0.6451250000000001
238,2019-12-24,159949,0.649,0.015000000000000013,0.01145000000000001,0.662,0.6473999999999998,0.6481250000000001
239,2019-12-25,159949,0.656,0.01200000000000001,0.01140000000000001,0.662,0.6477999999999998,0.649875
240,2019-12-26,159949,0.66,0.008000000000000007,0.01145000000000001,0.662,0.6489999999999998,0.65125
241,2019-12-27,159949,0.649,0.018000000000000016,0.01180000000000001,0.665,0.6495999999999998,0.65025
242,2019-12-30,159949,0.66,0.018000000000000016,0.01235000000000001,0.665,0.6547999999999999,0.651
243,2019-12-31,159949,0.661,0.007000000000000006,0.01205000000000001,0.665,0.6571999999999999,0.651875
244,2020-01-02,159949,0.673,0.018000000000000016,0.012400000000000012,0.677,0.6605999999999999,0.65525
245,2020-01-03,159949,0.671,0.01100000000000001,0.01210000000000001,0.677,0.6627999999999998,0.659875
246,2020-01-06,159949,0.678,0.020000000000000018,0.012700000000000012,0.686,0.6685999999999999,0.6635
247,2020-01-07,159949,0.686,0.009000000000000008,0.012700000000000012,0.687,0.6737999999999997,0.66725
248,2020-01-08,159949,0.676,0.013999999999999901,0.012700000000000006,0.688,0.6767999999999998,0.66925
249,2020-01-09,159949,0.696,0.02199999999999991,0.013300000000000001,0.698,0.6813999999999998,0.675125
250,2020-01-10,159949,0.695,0.009000000000000008,0.01335,0.7,0.6861999999999998,0.6795
251,2020-01-13,159949,0.706,0.018000000000000016,0.0134,0.706,0.6917999999999997,0.685125
252,2020-01-14,159949,0.702,0.009000000000000008,0.013250000000000001,0.71,0.6949999999999997,0.68875
253,2020-01-15,159949,0.701,0.01100000000000001,0.01315,0.71,0.6999999999999996,0.6924999999999999
254,2020-01-16,159949,0.704,0.008000000000000007,0.01315,0.71,0.7015999999999997,0.6957499999999999
255,2020-01-17,159949,0.704,0.009000000000000008,0.01315,0.71,0.7033999999999996,0.6979999999999998
256,2020-01-20,159949,0.724,0.02300000000000002,0.013750000000000002,0.727,0.7069999999999996,0.7039999999999998
257,2020-01-21,159949,0.717,0.014000000000000012,0.01365,0.728,0.7099999999999996,0.7066249999999998
258,2020-01-22,159949,0.733,0.03700000000000003,0.014750000000000003,0.74,0.7163999999999995,0.7113749999999998
259,2020-01-23,159949,0.711,0.039000000000000035,0.016100000000000003,0.74,0.7177999999999995,0.7119999999999997
260,2020-02-03,159949,0.653,0.06999999999999995,0.019200000000000002,0.74,0.7075999999999996,0.7058749999999998
261,2020-02-04,159949,0.703,0.051999999999999935,0.020899999999999995,0.74,0.7033999999999996,0.7061249999999999
262,2020-02-05,159949,0.725,0.03700000000000003,0.021849999999999998,0.74,0.7049999999999994,0.7087499999999999
263,2020-02-06,159949,0.749,0.040000000000000036,0.0235,0.753,0.7081999999999995,0.7143749999999999
78,2019-10-08,512760,1.269,0.04899999999999993,,,,
79,2019-10-09,512760,1.298,0.04800000000000004,,,,
80,2019-10-10,512760,1.316,0.028999999999999915,,,,
81,2019-10-11,512760,1.297,0.03500000000000014,,,,
82,2019-10-14,512760,1.333,0.04300000000000015,,,1.3026,
83,2019-10-15,512760,1.29,0.04600000000000004,,,1.3068,
84,2019-10-16,512760,1.274,0.025000000000000133,,,1.302,
85,2019-10-17,512760,1.27,0.016000000000000014,,,1.2928,1.293375
86,2019-10-18,512760,1.24,0.04600000000000004,,,1.2814,1.28975
87,2019-10-21,512760,1.242,0.03400000000000003,,,1.2631999999999999,1.2827499999999998
88,2019-10-22,512760,1.266,0.028000000000000025,,,1.2584,1.2764999999999997
89,2019-10-23,512760,1.255,0.02299999999999991,,,1.2546,1.2712499999999998
90,2019-10-24,512760,1.247,0.030999999999999917,,,1.25,1.2604999999999997
91,2019-10-25,512760,1.265,0.03699999999999992,,,1.255,1.2573749999999997
92,2019-10-28,512760,1.308,0.04600000000000004,,,1.2681999999999998,1.2616249999999996
93,2019-10-29,512760,1.275,0.03400000000000003,,,1.27,1.2622499999999997
94,2019-10-30,512760,1.305,0.05899999999999994,,,1.2799999999999998,1.2703749999999996
95,2019-10-31,512760,1.304,0.028000000000000025,,,1.2913999999999999,1.2781249999999997
96,2019-11-01,512760,1.311,0.028000000000000025,,,1.3006,1.2837499999999997
97,2019-11-04,512760,1.327,0.026999999999999913,0.03560000000000001,,1.3044,1.2927499999999998
98,2019-11-05,512760,1.345,0.03200000000000003,0.03475000000000002,,1.3184,1.305
99,2019-11-06,512760,1.314,0.04600000000000004,0.034650000000000014,,1.3202000000000003,1.3111249999999999
100,2019-11-07,512760,1.32,0.018999999999999906,0.034150000000000014,,1.3234000000000001,1.312625
101,2019-11-08,512760,1.324,0.02499999999999991,0.03365,,1.326,1.3187499999999999
102,2019-11-11,512760,1.29,0.037000000000000144,0.033350000000000005,1.353,1.3186000000000002,1.316875
103,2019-11-12,512760,1.282,0.03600000000000003,0.032850000000000004,1.353,1.3060000000000003,1.314125
104,2019-11-13,512760,1.335,0.06099999999999994,0.03464999999999999,1.353,1.3102000000000003,1.3171249999999999
105,2019-11-14,512760,1.373,0.04899999999999993,0.036299999999999985,1.377,1.3208000000000002,1.3228749999999998
106,2019-11-15,512760,1.364,0.040999999999999925,0.036049999999999985,1.401,1.3288000000000002,1.3252499999999998
107,2019-11-18,512760,1.362,0.029999999999999805,0.03584999999999997,1.401,1.3432,1.3312499999999998
108,2019-11-19,512760,1.382,0.03600000000000003,0.03624999999999997,1.401,1.3632000000000002,1.3389999999999997
109,2019-11-20,512760,1.364,0.029999999999999805,0.036599999999999966,1.401,1.3690000000000002,1.3439999999999999
110,2019-11-21,512760,1.362,0.026000000000000023,0.03634999999999997,1.401,1.3668,1.3529999999999998
111,2019-11-22,512760,1.329,0.08199999999999985,0.03859999999999997,1.401,1.3598000000000001,1.3588749999999998
112,2019-11-25,512760,1.272,0.062000000000000055,0.03939999999999997,1.401,1.3417999999999999,1.351
113,2019-11-26,512760,1.282,0.02200000000000002,0.038799999999999966,1.401,1.3218,1.339625
114,2019-11-27,512760,1.337,0.07600000000000007,0.03964999999999998,1.401,1.3164,1.33625
115,2019-11-28,512760,1.33,0.02200000000000002,0.039349999999999975,1.401,1.31,1.33225
116,2019-11-29,512760,1.334,0.03300000000000014,0.03959999999999998,1.401,1.3110000000000002,1.32625
117,2019-12-02,512760,1.371,0.051999999999999824,0.04084999999999998,1.401,1.3308,1.3271249999999999
118,2019-12-03,512760,1.408,0.05699999999999994,0.04209999999999997,1.41,1.3559999999999999,1.3328749999999998
119,2019-12-04,512760,1.413,0.04400000000000004,0.04199999999999997,1.439,1.3712,1.3433749999999998
120,2019-12-05,512760,1.438,0.06000000000000005,0.04404999999999998,1.468,1.3928,1.3641249999999998
121,2019-12-06,512760,1.473,0.04299999999999993,0.044949999999999976,1.474,1.4206000000000003,1.388
122,2019-12-09,512760,1.491,0.03699999999999992,0.04494999999999997,1.51,1.4446,1.40725
123,2019-12-10,512760,1.535,0.07899999999999996,0.04709999999999996,1.543,1.4700000000000002,1.432875
124,2019-12-11,512760,1.524,0.04200000000000004,0.04614999999999997,1.546,1.4922000000000004,1.4566249999999998
125,2019-12-12,512760,1.572,0.07899999999999996,0.04764999999999997,1.599,1.5190000000000003,1.4817499999999997
126,2019-12-13,512760,1.579,0.05400000000000005,0.048299999999999975,1.599,1.5402000000000002,1.5031249999999998
127,2019-12-16,512760,1.606,0.04899999999999993,0.04924999999999998,1.609,1.5632000000000006,1.5272499999999998
128,2019-12-17,512760,1.603,0.02200000000000002,0.04854999999999998,1.61,1.5768000000000004,1.5478749999999997
129,2019-12-18,512760,1.596,0.03600000000000003,0.04884999999999999,1.622,1.5912000000000004,1.5632499999999996
130,2019-12-19,512760,1.564,0.04100000000000015,0.0496,1.622,1.5896000000000006,1.5723749999999996
131,2019-12-20,512760,1.552,0.026000000000000023,0.04680000000000001,1.622,1.5842000000000007,1.5744999999999996
132,2019-12-23,512760,1.492,0.06899999999999995,0.047150000000000004,1.622,1.5614000000000008,1.5704999999999996
133,2019-12-24,512760,1.537,0.05699999999999994,0.0489,1.622,1.548200000000001,1.5661249999999995
134,2019-12-25,512760,1.627,0.09899999999999998,0.05005,1.63,1.5544000000000011,1.5721249999999996
135,2019-12-26,512760,1.61,0.03699999999999992,0.05079999999999999,1.63,1.563600000000001,1.5726249999999995
136,2019-12-27,512760,1.557,0.05400000000000005,0.051849999999999986,1.63,1.564600000000001,1.5668749999999996
137,2019-12-30,512760,1.564,0.06899999999999995,0.05269999999999999,1.63,1.579000000000001,1.5628749999999996
138,2019-12-31,512760,1.555,0.03699999999999992,0.05169999999999999,1.63,1.5826000000000013,1.5617499999999995
139,2020-01-02,512760,1.615,0.07499999999999996,0.053249999999999985,1.63,1.5802000000000012,1.5696249999999996
140,2020-01-03,512760,1.61,0.040000000000000036,0.052249999999999984,1.631,1.5802000000000012,1.5843749999999996
141,2020-01-06,512760,1.625,0.05499999999999994,0.05284999999999999,1.641,1.5938000000000012,1.5953749999999998
142,2020-01-07,512760,1.624,0.028999999999999915,0.05244999999999998,1.641,1.6058000000000014,1.5949999999999998
143,2020-01-08,512760,1.589,0.04500000000000015,0.050749999999999997,1.641,1.6126000000000016,1.5923749999999999
144,2020-01-09,512760,1.636,0.04899999999999993,0.05109999999999999,1.641,1.6168000000000013,1.6022499999999997
145,2020-01-10,512760,1.683,0.06500000000000017,0.0504,1.695,1.6314000000000015,1.6171249999999997
146,2020-01-13,512760,1.761,0.10199999999999987,0.05279999999999999,1.771,1.6586000000000012,1.6428749999999996
147,2020-01-14,512760,1.747,0.04399999999999982,0.052549999999999986,1.785,1.6832000000000011,1.6593749999999996
148,2020-01-15,512760,1.806,0.07699999999999996,0.05529999999999998,1.81,1.7266000000000008,1.6838749999999996
149,2020-01-16,512760,1.801,0.03499999999999992,0.05524999999999998,1.825,1.7596000000000012,1.7058749999999996
150,2020-01-17,512760,1.798,0.03500000000000014,0.05494999999999998,1.825,1.782600000000001,1.7276249999999995
151,2020-01-20,512760,1.9,0.10699999999999998,0.058999999999999976,1.905,1.8104000000000013,1.7664999999999995
152,2020-01-21,512760,1.9,0.06899999999999995,0.058999999999999976,1.932,1.8410000000000015,1.7994999999999997
153,2020-01-22,512760,2.009,0.17299999999999982,0.06479999999999997,2.033,1.8816000000000017,1.8402499999999997
154,2020-01-23,512760,1.955,0.14800000000000013,0.06724999999999998,2.052,1.9124000000000017,1.8645
155,2020-02-03,512760,1.76,0.19500000000000006,0.07514999999999998,2.052,1.9048000000000016,1.8661250000000003
156,2020-02-04,512760,1.855,0.1260000000000001,0.07874999999999999,2.052,1.8958000000000017,1.8722500000000002
157,2020-02-05,512760,1.851,0.09499999999999997,0.08004999999999998,2.052,1.8860000000000017,1.8785
158,2020-02-06,512760,1.9,0.09099999999999997,0.08274999999999999,2.052,1.8642000000000016,1.89125
183,2019-10-08,512880,0.934,0.014999999999999902,,,,
184,2019-10-09,512880,0.936,0.013000000000000012,,,,
185,2019-10-10,512880,0.944,0.010999999999999899,,,,
186,2019-10-11,512880,0.96,0.030000000000000027,,,,
187,2019-10-14,512880,0.975,0.029000000000000026,,,0.9498,
188,2019-10-15,512880,0.964,0.013000000000000012,,,0.9557999999999998,
189,2019-10-16,512880,0.957,0.020000000000000018,,,0.9599999999999997,
190,2019-10-17,512880,0.955,0.013000000000000012,,,0.9621999999999998,0.9531249999999999
191,2019-10-18,512880,0.932,0.025999999999999912,,,0.9565999999999999,0.9528749999999998
192,2019-10-21,512880,0.923,0.019000000000000017,,,0.9461999999999999,0.9512499999999999
193,2019-10-22,512880,0.928,0.010000000000000009,,,0.9390000000000001,0.94925
194,2019-10-23,512880,0.919,0.013000000000000012,,,0.9314000000000002,0.944125
195,2019-10-24,512880,0.925,0.014000000000000012,,,0.9254000000000001,0.937875
196,2019-10-25,512880,0.937,0.017000000000000015,,,0.9264000000000001,0.9344999999999999
197,2019-10-28,512880,0.95,0.018999999999999906,,,0.9318000000000002,0.9336249999999998
198,2019-10-29,512880,0.931,0.019999999999999907,,,0.9324000000000001,0.9306249999999998
199,2019-10-30,512880,0.921,0.01200000000000001,,,0.9328000000000003,0.9292499999999997
200,2019-10-31,512880,0.92,0.010000000000000009,,,0.9318000000000003,0.9288749999999997
201,2019-11-01,512880,0.933,0.020000000000000018,,,0.9310000000000003,0.9294999999999997
202,2019-11-04,512880,0.934,0.009999999999999898,0.016699999999999982,,0.9278000000000002,0.9313749999999996
203,2019-11-05,512880,0.947,0.020999999999999908,0.01699999999999998,,0.9310000000000003,0.9341249999999995
204,2019-11-06,512880,0.937,0.0129999999999999,0.016999999999999977,,0.9342000000000003,0.9341249999999995
205,2019-11-07,512880,0.941,0.0129999999999999,0.017099999999999976,,0.9384000000000002,0.9329999999999995
206,2019-11-08,512880,0.928,0.02399999999999991,0.01679999999999997,,0.9374000000000002,0.9326249999999995
207,2019-11-11,512880,0.911,0.018000000000000016,0.01624999999999997,0.989,0.9328000000000001,0.9313749999999995
208,2019-11-12,512880,0.913,0.010000000000000009,0.01609999999999997,0.989,0.9260000000000002,0.9304999999999994
209,2019-11-13,512880,0.905,0.01100000000000001,0.01564999999999997,0.989,0.9196000000000002,0.9269999999999994
210,2019-11-14,512880,0.907,0.010000000000000009,0.015499999999999969,0.989,0.9128000000000002,0.9236249999999994
211,2019-11-15,512880,0.896,0.014000000000000012,0.014899999999999974,0.989,0.9064000000000002,0.9172499999999993
212,2019-11-18,512880,0.907,0.017000000000000015,0.014799999999999975,0.976,0.9056000000000001,0.9134999999999992
213,2019-11-19,512880,0.914,0.010000000000000009,0.014799999999999975,0.976,0.9057999999999999,0.9101249999999993
214,2019-11-20,512880,0.9,0.016000000000000014,0.014949999999999974,0.963,0.9048,0.9066249999999992
215,2019-11-21,512880,0.9,0.01100000000000001,0.014799999999999975,0.957,0.9034000000000001,0.9052499999999992
216,2019-11-22,512880,0.899,0.016000000000000014,0.014749999999999975,0.955,0.9040000000000001,0.9034999999999993
217,2019-11-25,512880,0.903,0.01100000000000001,0.014349999999999979,0.955,0.9032,0.9032499999999993
218,2019-11-26,512880,0.899,0.009000000000000008,0.013799999999999984,0.955,0.9002000000000001,0.9022499999999993
219,2019-11-27,512880,0.895,0.006000000000000005,0.013499999999999984,0.955,0.8992000000000001,0.9021249999999993
220,2019-11-28,512880,0.895,0.007000000000000006,0.013349999999999983,0.955,0.8981999999999999,0.9006249999999993
221,2019-11-29,512880,0.898,0.01100000000000001,0.012899999999999984,0.955,0.8979999999999999,0.8986249999999993
222,2019-12-02,512880,0.904,0.018000000000000016,0.013299999999999989,0.955,0.8981999999999999,0.8991249999999993
223,2019-12-03,512880,0.91,0.01200000000000001,0.012849999999999995,0.955,0.9004,0.9003749999999993
224,2019-12-04,512880,0.907,0.007000000000000006,0.01255,0.955,0.9027999999999998,0.9013749999999993
225,2019-12-05,512880,0.921,0.016000000000000014,0.012700000000000006,0.955,0.9079999999999998,0.9036249999999992
226,2019-12-06,512880,0.926,0.010000000000000009,0.01200000000000001,0.955,0.9136,0.9069999999999993
227,2019-12-09,512880,0.924,0.008000000000000007,0.01150000000000001,0.955,0.9176,0.9106249999999994
228,2019-12-10,512880,0.923,0.009000000000000008,0.01145000000000001,0.952,0.9202,0.9141249999999994
229,2019-12-11,512880,0.924,0.013000000000000012,0.01155000000000001,0.952,0.9236000000000001,0.9173749999999994
230,2019-12-12,512880,0.919,0.008000000000000007,0.01145000000000001,0.952,0.9232000000000001,0.9192499999999995
231,2019-12-13,512880,0.957,0.04399999999999993,0.012950000000000007,0.963,0.9294,0.9251249999999995
232,2019-12-16,512880,0.969,0.028000000000000025,0.013500000000000007,0.976,0.9384,0.9328749999999995
233,2019-12-17,512880,0.999,0.061000000000000054,0.01605000000000001,1.026,0.9536,0.9426249999999995
234,2019-12-18,512880,0.998,0.02199999999999991,0.016350000000000003,1.026,0.9683999999999999,0.9516249999999995
235,2019-12-19,512880,0.993,0.015000000000000013,0.016550000000000002,1.026,0.9832000000000001,0.9602499999999995
236,2019-12-20,512880,1.0,0.027999999999999914,0.01715,1.026,0.9918000000000001,0.9698749999999994
237,2019-12-23,512880,0.972,0.040000000000000036,0.0186,1.026,0.9924000000000002,0.9758749999999993
238,2019-12-24,512880,0.983,0.014000000000000012,0.01885,1.026,0.9892000000000001,0.9838749999999992
239,2019-12-25,512880,0.985,0.02300000000000002,0.019700000000000002,1.026,0.9866000000000001,0.9873749999999991
240,2019-12-26,512880,1.008,0.028000000000000025,0.02075,1.026,0.9896,0.9922499999999991
241,2019-12-27,512880,0.989,0.03700000000000003,0.022050000000000004,1.026,0.9874,0.9909999999999991
242,2019-12-30,512880,1.046,0.07400000000000007,0.024850000000000004,1.054,1.0022000000000002,0.9969999999999991
243,2019-12-31,512880,1.04,0.019000000000000128,0.02520000000000001,1.054,1.0136000000000003,1.002874999999999
244,2020-01-02,512880,1.049,0.026999999999999913,0.026200000000000008,1.067,1.0264000000000002,1.008999999999999
245,2020-01-03,512880,1.045,0.016999999999999904,0.026250000000000002,1.067,1.0338,1.018124999999999
246,2020-01-06,512880,1.045,0.03600000000000003,0.02755,1.068,1.0450000000000002,1.025874999999999
247,2020-01-07,512880,1.053,0.02200000000000002,0.028250000000000004,1.068,1.0464,1.034374999999999
248,2020-01-08,512880,1.021,0.03600000000000003,0.029600000000000005,1.068,1.0426,1.0359999999999991
249,2020-01-09,512880,1.036,0.02300000000000013,0.03010000000000001,1.068,1.0400000000000003,1.041874999999999
250,2020-01-10,512880,1.038,0.02499999999999991,0.030950000000000005,1.068,1.0386000000000002,1.040874999999999
251,2020-01-13,512880,1.05,0.03200000000000003,0.03035000000000001,1.068,1.0396000000000003,1.042124999999999
252,2020-01-14,512880,1.036,0.019000000000000128,0.029900000000000017,1.068,1.0362000000000005,1.040499999999999
253,2020-01-15,512880,1.031,0.01200000000000001,0.027450000000000013,1.068,1.0382000000000002,1.0387499999999992
254,2020-01-16,512880,1.026,0.009000000000000119,0.026800000000000025,1.068,1.0362000000000002,1.0363749999999992
255,2020-01-17,512880,1.031,0.020000000000000018,0.027050000000000025,1.068,1.0348000000000002,1.0336249999999993
256,2020-01-20,512880,1.046,0.02200000000000002,0.02675000000000003,1.068,1.0340000000000003,1.0367499999999992
257,2020-01-21,512880,1.028,0.020999999999999908,0.025800000000000024,1.068,1.0324000000000002,1.0357499999999993
258,2020-01-22,512880,1.035,0.039000000000000146,0.02705000000000003,1.068,1.0332000000000003,1.0353749999999993
259,2020-01-23,512880,0.994,0.052999999999999936,0.028550000000000027,1.068,1.0268000000000002,1.0283749999999992
260,2020-02-03,512880,0.895,0.09899999999999998,0.032100000000000024,1.068,0.9996000000000004,1.0107499999999991
261,2020-02-04,512880,0.892,0.028000000000000025,0.031650000000000025,1.068,0.9688000000000004,0.9933749999999991
262,2020-02-05,512880,0.905,0.040000000000000036,0.029950000000000022,1.068,0.9442000000000004,0.9782499999999992
263,2020-02-06,512880,0.928,0.040000000000000036,0.031000000000000017,1.068,0.9228000000000003,0.9653749999999993
94,2019-10-08,512290,1.136,0.02299999999999991,,,,
95,2019-10-09,512290,1.135,0.014999999999999902,,,,
96,2019-10-10,512290,1.183,0.04899999999999993,,,,
97,2019-10-11,512290,1.192,0.016000000000000014,,,,
98,2019-10-14,512290,1.193,0.014000000000000012,,,1.1678000000000002,
99,2019-10-15,512290,1.19,0.016000000000000014,,,1.1785999999999999,
100,2019-10-16,512290,1.202,0.02200000000000002,,,1.192,
101,2019-10-17,512290,1.201,0.02200000000000002,,,1.1956,1.179
102,2019-10-18,512290,1.203,0.026999999999999913,,,1.1978,1.187375
103,2019-10-21,512290,1.181,0.037000000000000144,,,1.1954,1.193125
104,2019-10-22,512290,1.206,0.026999999999999913,,,1.1986,1.196
105,2019-10-23,512290,1.176,0.04300000000000015,,,1.1934,1.194
106,2019-10-24,512290,1.17,0.016999999999999904,,,1.1872,1.191125
107,2019-10-25,512290,1.177,0.016999999999999904,,,1.182,1.1895
108,2019-10-28,512290,1.197,0.02200000000000002,,,1.1851999999999998,1.1888750000000001
109,2019-10-29,512290,1.191,0.010999999999999899,,,1.1822,1.1876250000000002
110,2019-10-30,512290,1.176,0.019000000000000128,,,1.1822,1.1842500000000002
111,2019-10-31,512290,1.19,0.026000000000000023,,,1.1862,1.185375
112,2019-11-01,512290,1.205,0.02100000000000013,,,1.1918,1.1852500000000001
113,2019-11-04,512290,1.221,0.016999999999999904,0.023049999999999994,,1.1965999999999999,1.1908750000000001
114,2019-11-05,512290,1.222,0.01200000000000001,0.0225,,1.2028,1.197375
115,2019-11-06,512290,1.211,0.015000000000000124,0.02250000000000001,,1.2098,1.2016250000000002
116,2019-11-07,512290,1.222,0.016000000000000014,0.020850000000000014,,1.2162000000000002,1.2047500000000002
117,2019-11-08,512290,1.215,0.017000000000000126,0.02090000000000002,,1.2182000000000002,1.20775
118,2019-11-11,512290,1.189,0.030000000000000027,0.021700000000000018,1.231,1.2118000000000002,1.209375
119,2019-11-12,512290,1.193,0.017000000000000126,0.021750000000000026,1.231,1.2060000000000002,1.20975
120,2019-11-13,512290,1.204,0.019000000000000128,0.02160000000000003,1.231,1.2046000000000001,1.2096250000000002
121,2019-11-14,512290,1.217,0.016000000000000014,0.02130000000000003,1.231,1.2036000000000002,1.2091250000000002
122,2019-11-15,512290,1.213,0.014000000000000012,0.020650000000000036,1.231,1.2032000000000003,1.2080000000000004
123,2019-11-18,512290,1.213,0.01100000000000012,0.019350000000000034,1.231,1.2080000000000002,1.2082500000000003
124,2019-11-19,512290,1.239,0.028999999999999915,0.019450000000000033,1.24,1.2172,1.2103750000000004
125,2019-11-20,512290,1.236,0.018000000000000016,0.01820000000000003,1.25,1.2236,1.2130000000000005
126,2019-11-21,512290,1.23,0.015000000000000124,0.01810000000000004,1.25,1.2262,1.2181250000000006
127,2019-11-22,512290,1.177,0.06700000000000017,0.020600000000000052,1.25,1.2189999999999999,1.2161250000000006
128,2019-11-25,512290,1.161,0.03500000000000014,0.021250000000000057,1.25,1.2086000000000001,1.2107500000000004
129,2019-11-26,512290,1.155,0.016999999999999904,0.02155000000000006,1.25,1.1918000000000002,1.2030000000000003
130,2019-11-27,512290,1.158,0.01200000000000001,0.021200000000000052,1.25,1.1762000000000001,1.1961250000000003
131,2019-11-28,512290,1.163,0.010000000000000009,0.02040000000000005,1.25,1.1628000000000003,1.1898750000000002
132,2019-11-29,512290,1.139,0.04200000000000004,0.021450000000000045,1.25,1.1552000000000002,1.177375
133,2019-12-02,512290,1.12,0.020999999999999908,0.021650000000000048,1.25,1.1470000000000002,1.162875
134,2019-12-03,512290,1.124,0.019000000000000128,0.022000000000000054,1.25,1.1408000000000003,1.1496250000000001
135,2019-12-04,512290,1.136,0.020999999999999908,0.022300000000000042,1.25,1.1364000000000005,1.1445
136,2019-12-05,512290,1.151,0.019000000000000128,0.022450000000000046,1.25,1.1340000000000003,1.14325
137,2019-12-06,512290,1.155,0.01200000000000001,0.022200000000000043,1.25,1.1372000000000004,1.14325
138,2019-12-09,512290,1.138,0.026000000000000023,0.02200000000000004,1.25,1.1408000000000003,1.1407500000000002
139,2019-12-10,512290,1.153,0.018999999999999906,0.02210000000000003,1.25,1.1466,1.1395000000000002
140,2019-12-11,512290,1.152,0.017000000000000126,0.02200000000000003,1.25,1.1498000000000002,1.1411250000000002
141,2019-12-12,512290,1.154,0.010000000000000009,0.021700000000000032,1.25,1.1504,1.145375
142,2019-12-13,512290,1.175,0.02100000000000013,0.022050000000000035,1.25,1.1544,1.15175
143,2019-12-16,512290,1.18,0.015000000000000124,0.022250000000000037,1.25,1.1628,1.1572500000000001
144,2019-12-17,512290,1.189,0.016999999999999904,0.021650000000000037,1.25,1.17,1.1620000000000001
145,2019-12-18,512290,1.177,0.017000000000000126,0.021600000000000043,1.25,1.1749999999999998,1.1647500000000002
146,2019-12-19,512290,1.182,0.013000000000000123,0.02150000000000004,1.25,1.1805999999999996,1.1702500000000002
147,2019-12-20,512290,1.169,0.020999999999999908,0.01920000000000003,1.25,1.1793999999999998,1.1722500000000002
148,2019-12-23,512290,1.153,0.02400000000000002,0.01865000000000002,1.25,1.174,1.1723750000000004
149,2019-12-24,512290,1.162,0.01200000000000001,0.018400000000000027,1.25,1.1685999999999999,1.1733750000000005
150,2019-12-25,512290,1.161,0.010999999999999899,0.018350000000000023,1.239,1.1654,1.1716250000000004
151,2019-12-26,512290,1.177,0.017000000000000126,0.01870000000000003,1.237,1.1643999999999999,1.1712500000000003
152,2019-12-27,512290,1.165,0.017000000000000126,0.01745000000000003,1.19,1.1636,1.1682500000000005
153,2019-12-30,512290,1.167,0.020000000000000018,0.017400000000000037,1.19,1.1663999999999999,1.1670000000000005
154,2019-12-31,512290,1.197,0.040000000000000036,0.018450000000000032,1.205,1.1733999999999998,1.1688750000000006
155,2020-01-02,512290,1.2,0.014999999999999902,0.018150000000000034,1.205,1.1811999999999998,1.1727500000000004
156,2020-01-03,512290,1.197,0.010000000000000009,0.017700000000000028,1.205,1.1851999999999996,1.1782500000000005
157,2020-01-06,512290,1.191,0.018999999999999906,0.01805000000000002,1.205,1.1903999999999997,1.1818750000000007
158,2020-01-07,512290,1.209,0.02299999999999991,0.017900000000000017,1.21,1.1987999999999996,1.1878750000000007
159,2020-01-08,512290,1.195,0.017000000000000126,0.017800000000000028,1.21,1.1983999999999997,1.1901250000000008
160,2020-01-09,512290,1.224,0.030000000000000027,0.018450000000000022,1.225,1.2031999999999996,1.1975000000000007
161,2020-01-10,512290,1.239,0.016000000000000014,0.018750000000000024,1.24,1.2115999999999996,1.2065000000000008
162,2020-01-13,512290,1.25,0.018999999999999906,0.01865000000000001,1.25,1.2233999999999996,1.2131250000000007
163,2020-01-14,512290,1.239,0.018000000000000016,0.018800000000000004,1.254,1.2293999999999996,1.2180000000000009
164,2020-01-15,512290,1.246,0.016999999999999904,0.018800000000000004,1.254,1.2395999999999998,1.2241250000000008
165,2020-01-16,512290,1.244,0.016000000000000014,0.01875,1.254,1.2435999999999996,1.2307500000000007
166,2020-01-17,512290,1.259,0.0259999999999998,0.019399999999999983,1.265,1.2475999999999998,1.2370000000000008
167,2020-01-20,512290,1.302,0.049000000000000155,0.020799999999999996,1.308,1.2579999999999998,1.2503750000000007
168,2020-01-21,512290,1.337,0.038999999999999924,0.021549999999999993,1.341,1.2775999999999998,1.2645000000000006
169,2020-01-22,512290,1.305,0.04800000000000004,0.023349999999999992,1.347,1.2893999999999999,1.2727500000000005
170,2020-01-23,512290,1.296,0.05600000000000005,0.0256,1.347,1.2997999999999998,1.2785000000000004
171,2020-02-03,512290,1.241,0.1060000000000001,0.03005,1.347,1.2962,1.2787500000000003
172,2020-02-04,512290,1.301,0.08800000000000008,0.0336,1.347,1.296,1.2856250000000002
173,2020-02-05,512290,1.349,0.06700000000000017,0.03595,1.36,1.2984000000000002,1.2987500000000003
174,2020-02-06,512290,1.409,0.08899999999999997,0.038400000000000004,1.43,1.3192000000000002,1.3175000000000003
183,2019-10-08,512580,0.728,0.007000000000000006,,,,
184,2019-10-09,512580,0.735,0.013000000000000012,,,,
185,2019-10-10,512580,0.74,0.007000000000000006,,,,
186,2019-10-11,512580,0.736,0.009000000000000008,,,,
187,2019-10-14,512580,0.745,0.01200000000000001,,,0.7368,
188,2019-10-15,512580,0.735,0.01200000000000001,,,0.7382000000000002,
189,2019-10-16,512580,0.731,0.010000000000000009,,,0.7374000000000002,
190,2019-10-17,512580,0.725,0.009000000000000008,,,0.7344000000000002,0.734375
191,2019-10-18,512580,0.719,0.015000000000000013,,,0.7310000000000002,0.7332500000000001
192,2019-10-21,512580,0.715,0.01100000000000001,,,0.7250000000000002,0.73075
193,2019-10-22,512580,0.719,0.007000000000000006,,,0.7218000000000002,0.728125
194,2019-10-23,512580,0.715,0.007000000000000006,,,0.7186000000000003,0.7255
195,2019-10-24,512580,0.715,0.006000000000000005,,,0.7166000000000003,0.72175
196,2019-10-25,512580,0.719,0.01100000000000001,,,0.7166000000000003,0.71975
197,2019-10-28,512580,0.73,0.01200000000000001,,,0.7196000000000004,0.719625
198,2019-10-29,512580,0.722,0.01100000000000001,,,0.7202000000000004,0.71925
199,2019-10-30,512580,0.717,0.007000000000000006,,,0.7206000000000005,0.7189999999999999
200,2019-10-31,512580,0.714,0.009000000000000008,,,0.7204000000000004,0.7188749999999999
201,2019-11-01,512580,0.72,0.009000000000000008,,,0.7206000000000004,0.7189999999999999
202,2019-11-04,512580,0.724,0.007000000000000006,0.009550000000000008,,0.7194000000000004,0.7201249999999999
203,2019-11-05,512580,0.73,0.013000000000000012,0.009850000000000008,,0.7210000000000003,0.722
204,2019-11-06,512580,0.729,0.01100000000000001,0.009750000000000009,,0.7234000000000003,0.72325
205,2019-11-07,512580,0.727,0.006000000000000005,0.009700000000000009,,0.7260000000000002,0.7228749999999999
206,2019-11-08,512580,0.729,0.008000000000000007,0.00965000000000001,,0.7278000000000002,0.7237499999999999
207,2019-11-11,512580,0.711,0.020000000000000018,0.010050000000000009,0.748,0.7252000000000003,0.723
208,2019-11-12,512580,0.712,0.010000000000000009,0.00995000000000001,0.748,0.7216000000000002,0.72275
209,2019-11-13,512580,0.71,0.006000000000000005,0.009750000000000009,0.748,0.7178000000000002,0.7215
210,2019-11-14,512580,0.714,0.007000000000000006,0.00965000000000001,0.748,0.7152000000000002,0.7202500000000001
211,2019-11-15,512580,0.706,0.013000000000000012,0.009550000000000008,0.748,0.7106000000000001,0.7172499999999999
212,2019-11-18,512580,0.708,0.008000000000000007,0.009400000000000009,0.744,0.7100000000000002,0.714625
213,2019-11-19,512580,0.721,0.015000000000000013,0.009800000000000008,0.738,0.7118000000000002,0.7138749999999999
214,2019-11-20,512580,0.716,0.009000000000000008,0.00990000000000001,0.736,0.7130000000000003,0.7122499999999999
215,2019-11-21,512580,0.716,0.007000000000000006,0.00995000000000001,0.736,0.7134000000000003,0.7128749999999999
216,2019-11-22,512580,0.715,0.017000000000000015,0.010250000000000009,0.736,0.7152000000000004,0.7132499999999999
217,2019-11-25,512580,0.717,0.009000000000000008,0.010100000000000008,0.736,0.7170000000000003,0.7141249999999999
218,2019-11-26,512580,0.723,0.008000000000000007,0.00995000000000001,0.736,0.7174000000000003,0.7152499999999999
219,2019-11-27,512580,0.723,0.01200000000000001,0.01020000000000001,0.736,0.7188000000000002,0.7173749999999999
220,2019-11-28,512580,0.722,0.006000000000000005,0.010050000000000009,0.736,0.7200000000000001,0.7191249999999998
221,2019-11-29,512580,0.725,0.008000000000000007,0.010000000000000009,0.736,0.7220000000000001,0.7196249999999997
222,2019-12-02,512580,0.723,0.008000000000000007,0.010050000000000009,0.736,0.7232000000000001,0.7204999999999997
223,2019-12-03,512580,0.729,0.01200000000000001,0.010000000000000009,0.736,0.7243999999999999,0.7221249999999997
224,2019-12-04,512580,0.73,0.009000000000000008,0.00990000000000001,0.736,0.7258000000000001,0.7239999999999998
225,2019-12-05,512580,0.739,0.01200000000000001,0.01020000000000001,0.741,0.7292000000000001,0.7267499999999998
226,2019-12-06,512580,0.742,0.009000000000000008,0.010250000000000009,0.743,0.7325999999999999,0.7291249999999998
227,2019-12-09,512580,0.743,0.0050000000000000044,0.009500000000000008,0.745,0.7365999999999999,0.7316249999999999
228,2019-12-10,512580,0.743,0.008000000000000007,0.009400000000000009,0.745,0.7394000000000001,0.7342499999999998
229,2019-12-11,512580,0.738,0.010000000000000009,0.009600000000000008,0.746,0.7410000000000001,0.7358749999999998
230,2019-12-12,512580,0.738,0.0050000000000000044,0.009500000000000008,0.746,0.7408000000000001,0.7377499999999998
231,2019-12-13,512580,0.748,0.014000000000000012,0.009550000000000008,0.752,0.7420000000000002,0.7401249999999998
232,2019-12-16,512580,0.767,0.019000000000000017,0.010100000000000008,0.767,0.7468000000000002,0.7447499999999998
233,2019-12-17,512580,0.774,0.014000000000000012,0.010050000000000009,0.776,0.7530000000000002,0.7491249999999998
234,2019-12-18,512580,0.769,0.007000000000000006,0.00995000000000001,0.776,0.7592000000000001,0.7524999999999998
235,2019-12-19,512580,0.773,0.006000000000000005,0.00990000000000001,0.776,0.7662000000000002,0.7562499999999998
236,2019-12-20,512580,0.769,0.010000000000000009,0.009550000000000008,0.777,0.7704000000000001,0.7594999999999997
237,2019-12-23,512580,0.755,0.015000000000000013,0.009850000000000008,0.777,0.768,0.7616249999999998
238,2019-12-24,512580,0.773,0.018000000000000016,0.010350000000000008,0.777,0.7678,0.7659999999999998
239,2019-12-25,512580,0.778,0.008000000000000007,0.01015000000000001,0.778,0.7696000000000002,0.7697499999999998
240,2019-12-26,512580,0.779,0.007000000000000006,0.01020000000000001,0.781,0.7708000000000002,0.7712499999999998
241,2019-12-27,512580,0.776,0.014000000000000012,0.01050000000000001,0.789,0.7722000000000001,0.7714999999999997
242,2019-12-30,512580,0.785,0.018000000000000016,0.01100000000000001,0.789,0.7782000000000002,0.7734999999999997
243,2019-12-31,512580,0.786,0.009000000000000008,0.010850000000000009,0.789,0.7808000000000003,0.7751249999999998
244,2020-01-02,512580,0.802,0.017000000000000015,0.01125000000000001,0.803,0.7856000000000003,0.7792499999999998
245,2020-01-03,512580,0.805,0.007000000000000006,0.01100000000000001,0.808,0.7908000000000003,0.7854999999999998
246,2020-01-06,512580,0.821,0.027999999999999914,0.011950000000000006,0.829,0.7998000000000003,0.7914999999999998
247,2020-01-07,512580,0.832,0.01200000000000001,0.012300000000000005,0.833,0.8092000000000003,0.7982499999999997
248,2020-01-08,512580,0.829,0.018000000000000016,0.012800000000000006,0.84,0.8178000000000001,0.8044999999999997
249,2020-01-09,512580,0.835,0.01100000000000001,0.012850000000000006,0.84,0.8244,0.8118749999999997
250,2020-01-10,512580,0.83,0.013000000000000012,0.013250000000000007,0.84,0.8294,0.8174999999999997
251,2020-01-13,512580,0.845,0.016000000000000014,0.013350000000000006,0.846,0.8342,0.8248749999999996
252,2020-01-14,512580,0.851,0.015000000000000013,0.013150000000000005,0.86,0.8380000000000001,0.8309999999999995
253,2020-01-15,512580,0.844,0.017000000000000015,0.013300000000000006,0.86,0.8410000000000002,0.8358749999999996
254,2020-01-16,512580,0.843,0.008000000000000007,0.013350000000000006,0.86,0.8426000000000002,0.8386249999999996
255,2020-01-17,512580,0.837,0.01200000000000001,0.013650000000000006,0.86,0.8440000000000001,0.8392499999999996
256,2020-01-20,512580,0.85,0.013000000000000012,0.013800000000000007,0.86,0.8450000000000001,0.8418749999999996
257,2020-01-21,512580,0.839,0.013000000000000012,0.013700000000000007,0.86,0.8426,0.8423749999999995
258,2020-01-22,512580,0.854,0.03400000000000003,0.014500000000000008,0.86,0.8446,0.8453749999999995
259,2020-01-23,512580,0.821,0.041999999999999926,0.016200000000000003,0.86,0.8402,0.8423749999999995
260,2020-02-03,512580,0.743,0.08099999999999996,0.0199,0.86,0.8214,0.8288749999999996
261,2020-02-04,512580,0.771,0.03600000000000003,0.021,0.86,0.8056000000000001,0.8197499999999995
262,2020-02-05,512580,0.785,0.031000000000000028,0.021650000000000003,0.86,0.7948000000000002,0.8124999999999996
263,2020-02-06,512580,0.805,0.030000000000000027,0.022700000000000005,0.86,0.7850000000000001,0.8084999999999996
183,2019-10-08,512980,0.739,0.018000000000000016,,,,
184,2019-10-09,512980,0.74,0.01100000000000001,,,,
185,2019-10-10,512980,0.748,0.01100000000000001,,,,
186,2019-10-11,512980,0.751,0.017000000000000015,,,,
187,2019-10-14,512980,0.767,0.02400000000000002,,,0.749,
188,2019-10-15,512980,0.758,0.01100000000000001,,,0.7528,
189,2019-10-16,512980,0.756,0.008000000000000007,,,0.756,
190,2019-10-17,512980,0.76,0.01100000000000001,,,0.7584,0.752375
191,2019-10-18,512980,0.752,0.017000000000000015,,,0.7585999999999999,0.754
192,2019-10-21,512980,0.747,0.015000000000000013,,,0.7546,0.754875
193,2019-10-22,512980,0.75,0.008000000000000007,,,0.7529999999999999,0.7551249999999999
194,2019-10-23,512980,0.749,0.009000000000000008,,,0.7515999999999998,0.7548749999999999
195,2019-10-24,512980,0.749,0.009000000000000008,,,0.7493999999999998,0.7526249999999998
196,2019-10-25,512980,0.751,0.01200000000000001,,,0.7491999999999999,0.7517499999999998
197,2019-10-28,512980,0.777,0.029000000000000026,,,0.7552,0.7543749999999998
198,2019-10-29,512980,0.765,0.016000000000000014,,,0.7581999999999999,0.7549999999999998
199,2019-10-30,512980,0.756,0.013000000000000012,,,0.7595999999999999,0.7554999999999998
200,2019-10-31,512980,0.748,0.013000000000000012,,,0.7593999999999999,0.7556249999999999
201,2019-11-01,512980,0.756,0.01200000000000001,,,0.7603999999999999,0.7563749999999999
202,2019-11-04,512980,0.755,0.010000000000000009,0.013700000000000013,,0.7559999999999999,0.7571249999999999
203,2019-11-05,512980,0.756,0.01100000000000001,0.013350000000000011,,0.7541999999999999,0.758
204,2019-11-06,512980,0.745,0.013000000000000012,0.013450000000000012,,0.7519999999999998,0.75725
205,2019-11-07,512980,0.752,0.01200000000000001,0.013500000000000012,,0.7527999999999997,0.7541249999999999
206,2019-11-08,512980,0.754,0.010000000000000009,0.013150000000000012,,0.7523999999999997,0.7527499999999999
207,2019-11-11,512980,0.74,0.016000000000000014,0.012750000000000011,0.78,0.7493999999999998,0.7507499999999999
208,2019-11-12,512980,0.739,0.009000000000000008,0.012650000000000012,0.78,0.7459999999999998,0.7496249999999999
209,2019-11-13,512980,0.736,0.006000000000000005,0.01255000000000001,0.78,0.7441999999999996,0.7471249999999998
210,2019-11-14,512980,0.738,0.007000000000000006,0.01235000000000001,0.78,0.7413999999999996,0.7449999999999998
211,2019-11-15,512980,0.736,0.010000000000000009,0.01200000000000001,0.78,0.7377999999999996,0.7424999999999997
212,2019-11-18,512980,0.743,0.014000000000000012,0.011950000000000011,0.78,0.7383999999999995,0.7422499999999997
213,2019-11-19,512980,0.774,0.03200000000000003,0.013150000000000012,0.78,0.7453999999999995,0.7449999999999998
214,2019-11-20,512980,0.768,0.019000000000000017,0.013650000000000013,0.787,0.7517999999999996,0.7467499999999998
215,2019-11-21,512980,0.768,0.010000000000000009,0.013700000000000013,0.787,0.7577999999999995,0.7502499999999998
216,2019-11-22,512980,0.764,0.02100000000000002,0.014150000000000013,0.787,0.7633999999999995,0.7533749999999998
217,2019-11-25,512980,0.755,0.015000000000000013,0.013450000000000012,0.787,0.7657999999999995,0.7557499999999998
218,2019-11-26,512980,0.755,0.006000000000000005,0.012950000000000012,0.787,0.7619999999999996,0.7578749999999999
219,2019-11-27,512980,0.75,0.008000000000000007,0.012700000000000012,0.787,0.7583999999999996,0.7596249999999999
220,2019-11-28,512980,0.745,0.009000000000000008,0.012500000000000011,0.787,0.7537999999999997,0.7598749999999999
221,2019-11-29,512980,0.747,0.010000000000000009,0.012400000000000012,0.787,0.7503999999999996,0.7564999999999998
222,2019-12-02,512980,0.754,0.010000000000000009,0.012400000000000012,0.787,0.7501999999999998,0.7547499999999999
223,2019-12-03,512980,0.756,0.013000000000000012,0.012500000000000011,0.787,0.7503999999999997,0.75325
224,2019-12-04,512980,0.756,0.008000000000000007,0.012250000000000011,0.787,0.7515999999999998,0.75225
225,2019-12-05,512980,0.767,0.013000000000000012,0.01230000000000001,0.787,0.7559999999999999,0.75375
226,2019-12-06,512980,0.773,0.014000000000000012,0.012500000000000011,0.787,0.7611999999999999,0.756
227,2019-12-09,512980,0.776,0.014000000000000012,0.012400000000000012,0.787,0.7655999999999998,0.75925
228,2019-12-10,512980,0.784,0.016000000000000014,0.012750000000000011,0.787,0.7711999999999998,0.7641249999999999
229,2019-12-11,512980,0.78,0.014000000000000012,0.013150000000000012,0.791,0.7759999999999998,0.76825
230,2019-12-12,512980,0.775,0.01200000000000001,0.013400000000000013,0.791,0.7775999999999998,0.770875
231,2019-12-13,512980,0.788,0.013000000000000012,0.013550000000000012,0.791,0.7805999999999998,0.774875
232,2019-12-16,512980,0.816,0.027999999999999914,0.014250000000000007,0.816,0.7886,0.7823749999999999
233,2019-12-17,512980,0.815,0.0129999999999999,0.013300000000000001,0.82,0.7947999999999998,0.7883749999999999
234,2019-12-18,512980,0.838,0.03299999999999992,0.013999999999999995,0.845,0.8063999999999998,0.7965
235,2019-12-19,512980,0.843,0.018000000000000016,0.014399999999999996,0.851,0.8199999999999997,0.804875
236,2019-12-20,512980,0.829,0.020000000000000018,0.014349999999999996,0.851,0.8281999999999996,0.8105
237,2019-12-23,512980,0.808,0.02199999999999991,0.01469999999999999,0.851,0.8265999999999997,0.814
238,2019-12-24,512980,0.832,0.02399999999999991,0.015599999999999985,0.851,0.8299999999999997,0.8211249999999999
239,2019-12-25,512980,0.838,0.020000000000000018,0.016199999999999985,0.851,0.8299999999999997,0.8273749999999999
240,2019-12-26,512980,0.839,0.014000000000000012,0.016449999999999985,0.851,0.8291999999999998,0.8302499999999998
241,2019-12-27,512980,0.826,0.025000000000000022,0.017199999999999986,0.851,0.8285999999999998,0.8316249999999998
242,2019-12-30,512980,0.838,0.025000000000000022,0.017949999999999987,0.851,0.8345999999999998,0.8316249999999998
243,2019-12-31,512980,0.835,0.01100000000000001,0.017849999999999987,0.851,0.8351999999999998,0.8306249999999998
244,2020-01-02,512980,0.883,0.049000000000000044,0.01989999999999999,0.884,0.8441999999999998,0.8373749999999999
245,2020-01-03,512980,0.886,0.019000000000000017,0.02019999999999999,0.896,0.8535999999999998,0.8471249999999999
246,2020-01-06,512980,0.905,0.04600000000000004,0.021799999999999993,0.915,0.8694,0.85625
247,2020-01-07,512980,0.933,0.03500000000000003,0.022849999999999992,0.935,0.8883999999999999,0.8681249999999999
248,2020-01-08,512980,0.906,0.029000000000000026,0.023499999999999993,0.935,0.9025999999999998,0.8764999999999998
249,2020-01-09,512980,0.92,0.02400000000000002,0.023999999999999994,0.935,0.9099999999999998,0.8882499999999999
250,2020-01-10,512980,0.916,0.02100000000000002,0.024449999999999993,0.935,0.9159999999999998,0.8979999999999998
251,2020-01-13,512980,0.929,0.030000000000000027,0.025299999999999996,0.935,0.9207999999999998,0.9097499999999997
252,2020-01-14,512980,0.926,0.014999999999999902,0.024649999999999995,0.94,0.9193999999999999,0.9151249999999996
253,2020-01-15,512980,0.922,0.019000000000000017,0.02495,0.94,0.9225999999999999,0.9196249999999996
254,2020-01-16,512980,0.912,0.017000000000000015,0.024150000000000005,0.94,0.9209999999999999,0.9204999999999995
255,2020-01-17,512980,0.912,0.017000000000000015,0.024100000000000003,0.94,0.9201999999999998,0.9178749999999996
256,2020-01-20,512980,0.916,0.019000000000000017,0.024050000000000005,0.94,0.9175999999999999,0.9191249999999996
257,2020-01-21,512980,0.897,0.025000000000000022,0.02420000000000001,0.94,0.9117999999999998,0.9162499999999996
258,2020-01-22,512980,0.902,0.03300000000000003,0.024650000000000016,0.94,0.9077999999999999,0.9144999999999994
259,2020-01-23,512980,0.878,0.052000000000000046,0.026250000000000016,0.94,0.901,0.9081249999999994
260,2020-02-03,512980,0.79,0.08799999999999997,0.029950000000000015,0.94,0.8766,0.8911249999999995
261,2020-02-04,512980,0.832,0.052999999999999936,0.03135000000000001,0.94,0.8597999999999999,0.8798749999999995
262,2020-02-05,512980,0.849,0.03700000000000003,0.03195000000000001,0.94,0.8501999999999998,0.8719999999999996
263,2020-02-06,512980,0.909,0.06700000000000006,0.03475000000000002,0.94,0.8515999999999998,0.8716249999999995
183,2019-10-08,600460,15.05,0.4400000000000013,,,,
184,2019-10-09,600460,15.5,1.0500000000000007,,,,
185,2019-10-10,600460,15.58,0.379999999999999,,,,
186,2019-10-11,600460,15.38,0.4800000000000004,,,,
187,2019-10-14,600460,15.72,0.5999999999999996,,,15.446000000000002,
188,2019-10-15,600460,15.19,0.620000000000001,,,15.474,
189,2019-10-16,600460,15.11,0.25,,,15.396,
190,2019-10-17,600460,14.99,0.28999999999999915,,,15.278,15.315
191,2019-10-18,600460,14.58,0.5800000000000001,,,15.118,15.25625
192,2019-10-21,600460,14.72,0.6400000000000006,,,14.918000000000001,15.158750000000001
193,2019-10-22,600460,14.93,0.2400000000000002,,,14.866000000000003,15.077500000000002
194,2019-10-23,600460,14.67,0.3600000000000012,,,14.778000000000002,14.988750000000003
195,2019-10-24,600460,14.56,0.33000000000000007,,,14.692000000000004,14.843750000000004
196,2019-10-25,600460,14.84,0.41999999999999993,,,14.744000000000005,14.800000000000004
197,2019-10-28,600460,15.27,0.5899999999999999,,,14.854000000000005,14.820000000000006
198,2019-10-29,600460,14.8,0.46999999999999886,,,14.828000000000003,14.796250000000006
199,2019-10-30,600460,14.98,0.7699999999999996,,,14.890000000000004,14.846250000000007
200,2019-10-31,600460,14.66,0.46000000000000085,,,14.910000000000002,14.838750000000008
201,2019-11-01,600460,14.79,0.3600000000000012,,,14.9,14.821250000000006
202,2019-11-04,600460,15.0,0.3600000000000012,0.48450000000000026,,14.846,14.862500000000006
203,2019-11-05,600460,15.32,0.4800000000000004,0.4865000000000002,,14.950000000000003,14.957500000000007
204,2019-11-06,600460,15.01,0.620000000000001,0.4650000000000002,,14.956000000000003,14.978750000000005
205,2019-11-07,600460,15.08,0.41000000000000014,0.46650000000000025,,15.040000000000003,14.955000000000007
206,2019-11-08,600460,15.32,0.5500000000000007,0.4700000000000003,,15.146000000000004,15.020000000000008
207,2019-11-11,600460,14.82,0.5400000000000009,0.46700000000000036,15.98,15.110000000000003,15.000000000000009
208,2019-11-12,600460,14.64,0.6099999999999994,0.46650000000000025,15.98,14.974,14.99750000000001
209,2019-11-13,600460,14.89,0.41999999999999993,0.47500000000000026,15.98,14.95,15.010000000000009
210,2019-11-14,600460,15.34,0.6499999999999986,0.4930000000000002,15.98,15.002,15.052500000000009
211,2019-11-15,600460,15.15,0.4499999999999993,0.4865000000000002,15.98,14.968,15.03125000000001
212,2019-11-18,600460,15.2,0.3200000000000003,0.4705000000000002,15.65,15.044,15.055000000000009
213,2019-11-19,600460,15.53,0.46000000000000085,0.4815000000000002,15.63,15.222,15.111250000000007
214,2019-11-20,600460,15.72,0.6900000000000013,0.4980000000000002,16.05,15.388,15.16125000000001
215,2019-11-21,600460,15.75,0.5399999999999991,0.5085000000000002,16.05,15.469999999999999,15.27750000000001
216,2019-11-22,600460,15.26,0.8599999999999994,0.5305000000000002,16.06,15.491999999999999,15.35500000000001
217,2019-11-25,600460,14.51,0.8699999999999992,0.5445000000000001,16.06,15.354,15.30750000000001
218,2019-11-26,600460,14.45,0.33000000000000007,0.5375000000000002,16.06,15.138,15.19625000000001
219,2019-11-27,600460,14.66,0.75,0.5365000000000002,16.06,14.925999999999998,15.135000000000009
220,2019-11-28,600460,14.39,0.3200000000000003,0.5295000000000002,16.06,14.654,15.03375000000001
221,2019-11-29,600460,14.63,0.41000000000000014,0.5320000000000001,16.06,14.527999999999997,14.921250000000011
222,2019-12-02,600460,15.52,1.1199999999999992,0.5700000000000001,16.06,14.729999999999995,14.896250000000013
223,2019-12-03,600460,15.63,0.4800000000000004,0.5700000000000001,16.06,14.965999999999994,14.881250000000012
224,2019-12-04,600460,15.56,0.4900000000000002,0.5635,16.06,15.145999999999995,14.918750000000012
225,2019-12-05,600460,15.72,0.6500000000000004,0.5755,16.06,15.411999999999995,15.070000000000013
226,2019-12-06,600460,16.17,0.8200000000000003,0.589,16.36,15.719999999999995,15.285000000000013
227,2019-12-09,600460,16.0,0.6000000000000014,0.592,16.55,15.815999999999997,15.452500000000011
228,2019-12-10,600460,16.62,0.8000000000000007,0.6015,16.64,16.014,15.731250000000012
229,2019-12-11,600460,15.93,0.8200000000000003,0.6215,16.64,16.088,15.893750000000011
230,2019-12-12,600460,16.08,0.6599999999999984,0.6220000000000001,16.64,16.16,15.96375000000001
231,2019-12-13,600460,16.08,0.41999999999999815,0.6205,16.64,16.142,16.02000000000001
232,2019-12-16,600460,16.57,0.5799999999999983,0.6335,16.64,16.256,16.14625000000001
233,2019-12-17,600460,16.5,0.3999999999999986,0.6304999999999998,16.68,16.232,16.24375000000001
234,2019-12-18,600460,16.68,0.6600000000000001,0.6289999999999998,17.06,16.381999999999998,16.30750000000001
235,2019-12-19,600460,16.26,0.509999999999998,0.6274999999999997,17.06,16.418,16.34000000000001
236,2019-12-20,600460,15.93,0.5000000000000018,0.6094999999999998,17.06,16.388,16.25375000000001
237,2019-12-23,600460,15.9,0.7300000000000022,0.6024999999999999,17.06,16.254,16.25000000000001
238,2019-12-24,600460,16.01,0.3199999999999985,0.6019999999999999,17.06,16.156000000000002,16.241250000000008
239,2019-12-25,600460,16.64,0.8399999999999981,0.6064999999999998,17.06,16.148000000000003,16.31125000000001
240,2019-12-26,600460,16.54,0.39000000000000057,0.6099999999999998,17.06,16.204,16.307500000000008
241,2019-12-27,600460,15.85,0.7799999999999994,0.6284999999999997,17.06,16.188,16.226250000000007
242,2019-12-30,600460,15.51,0.7999999999999989,0.6124999999999997,17.06,16.11,16.080000000000005
243,2019-12-31,600460,15.47,0.33999999999999986,0.6054999999999997,17.06,16.002,15.981250000000005
244,2020-01-02,600460,15.87,0.5600000000000005,0.6089999999999998,17.06,15.847999999999999,15.973750000000003
245,2020-01-03,600460,15.91,0.33000000000000007,0.5929999999999997,17.06,15.721999999999998,15.975000000000001
246,2020-01-06,600460,16.39,0.9400000000000013,0.5989999999999998,17.06,15.829999999999998,16.0225
247,2020-01-07,600460,16.48,0.3200000000000003,0.5849999999999997,17.06,16.023999999999997,16.002499999999998
248,2020-01-08,600460,15.93,0.7799999999999994,0.5839999999999996,17.06,16.115999999999996,15.92625
249,2020-01-09,600460,16.53,0.6600000000000001,0.5759999999999996,17.06,16.247999999999998,16.01125
250,2020-01-10,600460,16.64,0.6400000000000006,0.5749999999999997,17.06,16.394,16.152500000000003
251,2020-01-13,600460,17.2,0.7300000000000004,0.5904999999999998,17.28,16.555999999999997,16.368750000000002
252,2020-01-14,600460,16.63,0.740000000000002,0.5985,17.37,16.585999999999995,16.46375
253,2020-01-15,600460,16.97,0.6799999999999997,0.6125,17.37,16.793999999999993,16.59625
254,2020-01-16,600460,16.8,0.4499999999999993,0.6020000000000001,17.37,16.847999999999992,16.6475
255,2020-01-17,600460,16.51,0.5500000000000007,0.6040000000000002,17.37,16.821999999999996,16.65125
256,2020-01-20,600460,17.02,0.8200000000000003,0.6200000000000001,17.37,16.785999999999994,16.7875
257,2020-01-21,600460,16.17,1.129999999999999,0.6399999999999999,17.37,16.693999999999996,16.742500000000003
258,2020-01-22,600460,16.84,1.0800000000000018,0.6780000000000002,17.37,16.667999999999996,16.767500000000005
259,2020-01-23,600460,16.95,1.1900000000000013,0.6955000000000002,17.69,16.697999999999997,16.736250000000005
260,2020-02-03,600460,15.26,1.6899999999999995,0.7605000000000002,17.69,16.447999999999997,16.565000000000005
261,2020-02-04,600460,14.71,1.5099999999999998,0.7970000000000004,17.69,15.985999999999999,16.282500000000006
262,2020-02-05,600460,14.71,0.7200000000000006,0.7930000000000004,17.69,15.693999999999997,16.021250000000006
263,2020-02-06,600460,14.88,0.47000000000000064,0.7995000000000004,17.69,15.301999999999996,15.817500000000004
178,2019-10-08,000651,58.15,1.7199999999999989,,,,
179,2019-10-09,000651,57.02,1.1799999999999997,,,,
180,2019-10-10,000651,57.71,1.5500000000000043,,,,
181,2019-10-11,000651,58.57,1.1400000000000006,,,,
182,2019-10-14,000651,58.7,1.1900000000000048,,,58.029999999999994,
183,2019-10-15,000651,58.9,1.0,,,58.17999999999999,
184,2019-10-16,000651,59.02,1.0799999999999983,,,58.58,
185,2019-10-17,000651,58.25,0.9400000000000048,,,58.688,58.28999999999999
186,2019-10-18,000651,57.8,1.3100000000000023,,,58.534000000000006,58.24624999999999
187,2019-10-21,000651,58.44,1.25,,,58.482000000000006,58.423749999999984
188,2019-10-22,000651,58.81,0.8999999999999986,,,58.46400000000001,58.56124999999998
189,2019-10-23,000651,58.73,0.8099999999999952,,,58.40600000000002,58.581249999999976
190,2019-10-24,000651,58.18,0.8900000000000006,,,58.39200000000002,58.51624999999998
191,2019-10-25,000651,57.15,2.3699999999999974,,,58.262000000000015,58.297499999999985
192,2019-10-28,000651,56.9,1.2100000000000009,,,57.95400000000001,58.032499999999985
193,2019-10-29,000651,59.39,3.1400000000000006,,,58.07000000000001,58.17499999999998
194,2019-10-30,000651,58.67,2.039999999999999,,,58.05800000000001,58.283749999999976
195,2019-10-31,000651,58.7,1.2199999999999989,,,58.162,58.316249999999975
196,2019-11-01,000651,63.78,5.700000000000003,,,59.488000000000014,58.93749999999998
197,2019-11-04,000651,64.45,1.7700000000000031,1.6205000000000005,,60.99800000000001,59.652499999999975
198,2019-11-05,000651,64.08,1.6599999999999966,1.6175000000000004,,61.936000000000014,60.38999999999998
199,2019-11-06,000651,63.5,1.0900000000000034,1.6130000000000007,,62.90200000000001,61.18374999999999
200,2019-11-07,000651,63.71,1.0,1.5855000000000004,,63.90400000000001,62.035
201,2019-11-08,000651,63.61,1.4299999999999926,1.6,,63.870000000000005,62.5625
202,2019-11-11,000651,61.17,2.9099999999999966,1.6859999999999995,65.16,63.21400000000001,62.87499999999999
203,2019-11-12,000651,59.16,2.5500000000000043,1.7634999999999998,65.16,62.230000000000004,62.9325
204,2019-11-13,000651,58.85,1.0500000000000043,1.762,65.16,61.30000000000001,62.31625
205,2019-11-14,000651,59.13,0.8699999999999974,1.7584999999999997,65.16,60.384000000000015,61.65125
206,2019-11-15,000651,58.86,0.7899999999999991,1.7324999999999995,65.16,59.43400000000001,60.998749999999994
207,2019-11-18,000651,58.99,0.6900000000000048,1.7045,65.16,58.99800000000001,60.43499999999999
208,2019-11-19,000651,59.46,1.0600000000000023,1.7125,65.16,59.058000000000014,59.903749999999995
209,2019-11-20,000651,58.86,0.730000000000004,1.7085000000000004,65.16,59.06000000000002,59.30999999999999
210,2019-11-21,000651,57.45,1.8299999999999983,1.7555000000000003,65.16,58.72400000000001,58.84499999999999
211,2019-11-22,000651,56.72,1.9299999999999997,1.7335000000000005,65.16,58.29600000000001,58.53999999999999
212,2019-11-25,000651,57.81,1.480000000000004,1.7470000000000006,65.16,58.06,58.40999999999998
213,2019-11-26,000651,58.54,0.9499999999999957,1.6375000000000004,65.16,57.87600000000001,58.33624999999998
214,2019-11-27,000651,57.64,1.6400000000000006,1.6175000000000004,65.16,57.632000000000005,58.183749999999975
215,2019-11-28,000651,58.45,0.9699999999999989,1.6050000000000004,65.16,57.83200000000001,58.11624999999998
216,2019-11-29,000651,57.71,1.8299999999999983,1.4115000000000002,65.16,58.029999999999994,57.89749999999999
217,2019-12-03,000651,60.8,3.479999999999997,1.4969999999999999,65.16,58.628,58.139999999999986
218,2019-12-04,000651,62.58,3.0900000000000034,1.5685000000000002,65.16,59.43599999999999,58.78124999999999
219,2019-12-05,000651,62.27,1.2299999999999969,1.5755,65.16,60.36199999999999,59.474999999999994
220,2019-12-06,000651,62.39,0.8599999999999994,1.5684999999999998,65.16,61.14999999999999,60.04749999999999
221,2019-12-09,000651,62.15,0.9500000000000028,1.5445000000000004,65.16,62.03799999999999,60.498749999999994
222,2019-12-10,000651,62.16,0.75,1.4365000000000006,65.16,62.30999999999998,61.06375
223,2019-12-11,000651,61.4,1.470000000000006,1.3825000000000007,64.63,62.07399999999998,61.4325
224,2019-12-12,000651,61.48,0.8800000000000026,1.3740000000000006,64.63,61.91599999999998,61.903749999999995
225,2019-12-13,000651,62.99,1.9100000000000037,1.4260000000000008,64.63,62.03599999999999,62.17749999999999
226,2019-12-16,000651,63.1,0.9299999999999997,1.433000000000001,63.65,62.226,62.242499999999986
227,2019-12-17,000651,64.11,1.500000000000007,1.473500000000001,64.51,62.61600000000001,62.47249999999998
228,2019-12-18,000651,64.37,1.9899999999999949,1.5200000000000007,66.1,63.210000000000015,62.719999999999985
229,2019-12-19,000651,65.0,1.1299999999999955,1.5400000000000003,66.1,63.91400000000001,63.07624999999999
230,2019-12-20,000651,64.51,1.0900000000000034,1.5030000000000006,66.1,64.218,63.36999999999999
231,2019-12-23,000651,64.5,1.0999999999999943,1.4615000000000002,66.1,64.498,63.75749999999999
232,2019-12-24,000651,65.02,0.9899999999999949,1.4369999999999998,66.1,64.67999999999999,64.19999999999999
233,2019-12-25,000651,64.4,1.039999999999992,1.4414999999999996,66.1,64.68599999999999,64.37624999999998
234,2019-12-26,000651,64.78,0.5499999999999972,1.3869999999999993,66.1,64.64199999999998,64.58624999999998
235,2019-12-27,000651,64.53,1.3599999999999994,1.4064999999999994,66.1,64.64599999999999,64.63874999999997
236,2019-12-30,000651,65.58,1.6500000000000057,1.3974999999999997,66.1,64.86199999999998,64.78999999999998
237,2019-12-31,000651,65.58,1.0600000000000023,1.2765,66.1,64.97399999999998,64.86249999999998
238,2020-01-02,000651,67.9,2.510000000000005,1.2475,68.09,65.67399999999998,65.28624999999998
239,2020-01-03,000651,67.1,1.7999999999999972,1.2760000000000002,68.7,66.13799999999999,65.61124999999998
240,2020-01-06,000651,65.88,2.0999999999999943,1.3379999999999999,68.7,66.40799999999999,65.71874999999999
241,2020-01-07,000651,67.32,1.6700000000000017,1.3739999999999999,68.7,66.756,66.08375
242,2020-01-08,000651,68.8,3.0700000000000074,1.4900000000000002,69.67,67.4,66.58624999999999
243,2020-01-09,000651,69.88,1.7600000000000051,1.5045000000000002,70.56,67.796,67.255
244,2020-01-10,000651,69.75,1.1299999999999955,1.517,70.56,68.326,67.77624999999999
245,2020-01-13,000651,69.76,1.0400000000000063,1.4735,70.56,69.102,68.29874999999998
246,2020-01-14,000651,69.81,1.039999999999992,1.4789999999999996,70.56,69.6,68.53749999999998
247,2020-01-15,000651,68.9,1.6899999999999977,1.488499999999999,70.56,69.61999999999999,68.76249999999997
248,2020-01-16,000651,67.32,2.4000000000000057,1.5089999999999997,70.56,69.10799999999999,68.94249999999998
249,2020-01-17,000651,67.91,1.240000000000009,1.5145000000000004,70.56,68.73999999999998,69.01624999999999
250,2020-01-20,000651,68.35,1.3599999999999994,1.528,70.56,68.458,68.96
251,2020-01-21,000651,66.5,2.049999999999997,1.5755000000000003,70.56,67.79599999999999,68.5375
252,2020-01-22,000651,66.64,2.299999999999997,1.6410000000000005,70.56,67.34399999999998,68.14874999999999
253,2020-01-23,000651,63.94,3.1199999999999974,1.7450000000000006,70.56,66.66799999999998,67.42124999999999
254,2020-02-03,000651,58.77,6.390000000000001,2.037000000000001,70.56,64.83999999999999,66.04124999999999
255,2020-02-04,000651,61.57,3.4299999999999997,2.1405000000000007,70.56,63.483999999999995,65.125
256,2020-02-05,000651,62.85,1.9299999999999997,2.1545000000000005,70.56,62.754,64.56625
257,2020-02-06,000651,63.24,2.009999999999998,2.2020000000000004,70.56,62.074,63.9825
183,2019-10-08,601318,88.0,1.6200000000000045,,,,
184,2019-10-09,601318,88.18,1.269999999999996,,,,
185,2019-10-10,601318,88.5,1.1400000000000006,,,,
186,2019-10-11,601318,89.9,1.769999999999996,,,,
187,2019-10-14,601318,90.45,1.5499999999999972,,,89.006,
188,2019-10-15,601318,90.2,0.8599999999999994,,,89.446,
189,2019-10-16,601318,90.58,1.6199999999999903,,,89.92600000000002,
190,2019-10-17,601318,91.72,1.5900000000000034,,,90.57000000000001,89.69125000000001
191,2019-10-18,601318,89.75,2.769999999999996,,,90.54,89.91000000000001
192,2019-10-21,601318,90.07,1.519999999999996,,,90.464,90.14625000000001
193,2019-10-22,601318,90.29,1.210000000000008,,,90.482,90.37
194,2019-10-23,601318,89.5,1.4200000000000017,,,90.26600000000002,90.32000000000001
195,2019-10-24,601318,89.8,1.0900000000000034,,,89.88200000000002,90.23875
196,2019-10-25,601318,88.0,2.700000000000003,,,89.53200000000001,89.96374999999999
197,2019-10-28,601318,88.64,1.0,,,89.24600000000001,89.72124999999998
198,2019-10-29,601318,88.2,1.0800000000000125,,,88.828,89.28124999999999
199,2019-10-30,601318,87.95,0.7000000000000028,,,88.518,89.05624999999999
200,2019-10-31,601318,88.12,0.9099999999999966,,,88.182,88.8125
201,2019-11-01,601318,90.04,2.049999999999997,,,88.59,88.78125
202,2019-11-04,601318,90.29,0.730000000000004,1.4300000000000004,,88.92,88.88
203,2019-11-05,601318,90.06,1.6000000000000085,1.4290000000000007,,89.29200000000002,88.9125
204,2019-11-06,601318,90.0,0.730000000000004,1.402000000000001,,89.70200000000001,89.1625
205,2019-11-07,601318,89.77,0.8199999999999932,1.3860000000000006,,90.03200000000001,89.30375
206,2019-11-08,601318,89.17,1.3799999999999955,1.3665000000000007,,89.858,89.42499999999998
207,2019-11-11,601318,88.21,1.269999999999996,1.3525000000000005,92.45,89.442,89.45749999999998
208,2019-11-12,601318,88.22,0.7000000000000028,1.3445000000000007,92.45,89.07399999999998,89.46999999999998
209,2019-11-13,601318,88.0,0.8100000000000023,1.3040000000000014,92.45,88.67399999999998,89.21499999999999
210,2019-11-14,601318,88.03,0.6899999999999977,1.259000000000001,92.45,88.32599999999998,88.93249999999999
211,2019-11-15,601318,87.9,0.5499999999999972,1.148000000000001,92.45,88.07199999999997,88.6625
212,2019-11-18,601318,88.71,1.2999999999999972,1.1370000000000011,92.45,88.17199999999997,88.50125
213,2019-11-19,601318,88.89,0.8799999999999955,1.1205000000000005,92.45,88.30599999999997,88.39125
214,2019-11-20,601318,88.05,0.9599999999999937,1.0975000000000001,92.45,88.31599999999996,88.25125
215,2019-11-21,601318,86.34,2.039999999999992,1.1449999999999996,92.45,87.97799999999998,88.0175
216,2019-11-22,601318,84.89,2.269999999999996,1.1234999999999993,91.26,87.37599999999998,87.60125
217,2019-11-25,601318,85.5,1.289999999999992,1.1379999999999988,91.26,86.73399999999998,87.28875
218,2019-11-26,601318,85.4,1.0499999999999972,1.136499999999998,91.26,86.03599999999999,86.96
219,2019-11-27,601318,84.91,0.9000000000000057,1.1464999999999983,91.26,85.40799999999999,86.58624999999999
220,2019-11-28,601318,84.4,0.9299999999999926,1.147499999999998,91.26,85.01999999999998,86.04749999999999
221,2019-11-29,601318,83.62,2.049999999999997,1.147499999999998,91.26,84.76599999999999,85.38874999999999
222,2019-12-02,601318,83.29,0.9699999999999989,1.1594999999999978,91.26,84.32399999999998,84.79374999999999
223,2019-12-03,601318,84.27,1.4899999999999949,1.153999999999997,91.26,84.09799999999998,84.53499999999998
224,2019-12-04,601318,84.07,0.8999999999999915,1.1624999999999965,91.26,83.92999999999998,84.43249999999999
225,2019-12-05,601318,84.67,0.9300000000000068,1.167999999999997,91.26,83.98399999999997,84.32874999999999
226,2019-12-06,601318,84.74,0.6200000000000045,1.1299999999999977,91.26,84.20799999999997,84.24624999999999
227,2019-12-09,601318,83.65,1.5499999999999972,1.1439999999999977,91.26,84.27999999999996,84.08874999999999
228,2019-12-10,601318,83.59,0.5799999999999983,1.1379999999999975,90.55,84.14399999999996,83.9875
229,2019-12-11,601318,84.04,0.789999999999992,1.136999999999997,90.55,84.13799999999996,84.03999999999999
230,2019-12-12,601318,84.04,0.6400000000000006,1.134499999999997,90.55,84.01199999999997,84.13374999999999
231,2019-12-13,601318,86.77,2.7299999999999898,1.2434999999999967,89.1,84.41799999999996,84.44624999999999
232,2019-12-16,601318,85.64,1.8699999999999903,1.2719999999999962,89.1,84.81599999999996,84.64249999999998
233,2019-12-17,601318,86.13,1.5900000000000034,1.3074999999999968,89.1,85.32399999999996,84.82499999999999
234,2019-12-18,601318,85.98,0.6400000000000006,1.291499999999997,89.1,85.71199999999996,84.97999999999999
235,2019-12-19,601318,85.7,0.9000000000000057,1.2344999999999977,89.1,86.04399999999995,85.23625
236,2019-12-20,601318,85.53,0.8100000000000023,1.161499999999998,89.1,85.79599999999996,85.47874999999999
237,2019-12-23,601318,84.29,1.7199999999999989,1.1829999999999985,89.1,85.52599999999995,85.50999999999999
238,2019-12-24,601318,84.46,0.5499999999999972,1.1579999999999984,88.8,85.19199999999996,85.5625
239,2019-12-25,601318,83.93,0.7000000000000028,1.1479999999999984,87.75,84.78199999999995,85.20750000000001
240,2019-12-26,601318,84.43,0.5300000000000011,1.1279999999999988,86.95,84.52799999999996,85.05625000000002
241,2019-12-27,601318,84.72,1.2399999999999949,1.0874999999999986,86.84,84.36599999999996,84.88000000000002
242,2019-12-30,601318,85.89,2.0999999999999943,1.1439999999999984,86.84,84.68599999999995,84.86875000000002
243,2019-12-31,601318,85.46,0.8999999999999915,1.1144999999999983,86.84,84.88599999999995,84.83875000000002
244,2020-01-02,601318,86.12,1.3300000000000125,1.1359999999999992,86.84,85.32399999999996,84.91250000000002
245,2020-01-03,601318,86.2,0.9799999999999898,1.1384999999999983,86.88,85.67799999999997,85.15125000000003
246,2020-01-06,601318,85.6,1.3700000000000045,1.1759999999999984,86.88,85.85399999999996,85.29375000000003
247,2020-01-07,601318,86.15,0.8599999999999994,1.1414999999999984,86.88,85.90599999999995,85.57125000000002
248,2020-01-08,601318,85.0,1.6500000000000057,1.194999999999999,86.88,85.81399999999995,85.64250000000001
249,2020-01-09,601318,85.04,0.9200000000000017,1.2014999999999993,86.88,85.59799999999996,85.6825
250,2020-01-10,601318,84.78,0.7800000000000011,1.2084999999999995,86.88,85.31399999999995,85.54375
251,2020-01-13,601318,86.45,1.6899999999999977,1.1564999999999999,86.88,85.48399999999995,85.6675
252,2020-01-14,601318,86.83,1.3699999999999903,1.1314999999999997,87.82,85.61999999999996,85.75625000000001
253,2020-01-15,601318,85.81,1.4399999999999977,1.1239999999999994,87.82,85.78199999999997,85.70750000000001
254,2020-01-16,601318,85.55,0.8200000000000074,1.1329999999999998,87.82,85.88399999999996,85.70125
255,2020-01-17,601318,86.25,1.3500000000000085,1.1555,87.82,86.17799999999997,85.71375
256,2020-01-20,601318,87.6,2.450000000000003,1.2375,88.7,86.40799999999999,86.03875000000001
257,2020-01-21,601318,85.6,2.0,1.2515,88.7,86.16199999999998,86.10875000000001
258,2020-01-22,601318,85.22,1.769999999999996,1.3125,88.7,86.04399999999997,86.16375000000002
259,2020-01-23,601318,83.49,2.739999999999995,1.4144999999999996,88.7,85.63199999999996,85.79375000000002
260,2020-02-03,601318,77.71,7.089999999999989,1.742499999999999,88.7,83.92399999999995,84.65375000000002
261,2020-02-04,601318,80.43,3.260000000000005,1.8434999999999995,88.7,82.48999999999997,83.98125000000002
262,2020-02-05,601318,80.38,1.5699999999999932,1.8169999999999995,88.7,81.44599999999996,83.33500000000002
263,2020-02-06,601318,81.52,1.5900000000000034,1.8515000000000001,88.7,80.70599999999995,82.74375000000002
